wave,flux,fluxerr
320.00000,1.3977074e-11,1.8013996e-13
320.01000,1.3798653e-11,1.7931182e-13
320.02000,1.3625966e-11,1.7823592e-13
320.03000,1.3510887e-11,1.7698106e-13
320.04000,1.3491142e-11,1.7733531e-13
320.05000,1.3538294e-11,1.7806638e-13
320.06000,1.3640133e-11,1.7912956e-13
320.07000,1.3835678e-11,1.8132803e-13
320.08000,1.4104061e-11,1.8388745e-13
320.09000,1.4381813e-11,1.8659332e-13
320.10000,1.4604087e-11,1.8883883e-13
320.11000,1.4764603e-11,1.9033233e-13
320.12000,1.4887724e-11,1.9107170e-13
320.13000,1.5009708e-11,1.9173649e-13
320.14000,1.5185686e-11,1.9308149e-13
320.15000,1.5409095e-11,1.9514957e-13
320.16000,1.5584075e-11,1.9710085e-13
320.17000,1.5671674e-11,1.9816887e-13
320.18000,1.5602612e-11,1.9744588e-13
320.19000,1.5376675e-11,1.9535493e-13
320.20000,1.5201256e-11,1.9354260e-13
320.21000,1.5079600e-11,1.9159727e-13
320.22000,1.4868549e-11,1.8898005e-13
320.23000,1.4653836e-11,1.8718995e-13
320.24000,1.4558513e-11,1.8696374e-13
320.25000,1.4496448e-11,1.8686815e-13
320.26000,1.4315112e-11,1.8531009e-13
320.27000,1.4010584e-11,1.8217610e-13
320.28000,1.3695919e-11,1.7887059e-13
320.29000,1.3491983e-11,1.7695419e-13
320.30000,1.3418171e-11,1.7653295e-13
320.31000,1.3426624e-11,1.7670881e-13
320.32000,1.3475439e-11,1.7707865e-13
320.33000,1.3528670e-11,1.7764662e-13
320.34000,1.3559537e-11,1.7797314e-13
320.35000,1.3621817e-11,1.7846613e-13
320.36000,1.3815782e-11,1.8031525e-13
320.37000,1.4164571e-11,1.8373274e-13
320.38000,1.4649562e-11,1.8845085e-13
320.39000,1.5153768e-11,1.9309229e-13
320.40000,1.5509057e-11,1.9589604e-13
320.41000,1.5656823e-11,1.9674388e-13
320.42000,1.5698911e-11,1.9715404e-13
320.43000,1.5742515e-11,1.9825135e-13
320.44000,1.5850431e-11,2.0011547e-13
320.45000,1.6031818e-11,2.0213638e-13
320.46000,1.6187718e-11,2.0319065e-13
320.47000,1.6253974e-11,2.0290842e-13
320.48000,1.6227272e-11,2.0199709e-13
320.49000,1.6091752e-11,2.0090687e-13
320.50000,1.5902075e-11,1.9956537e-13
320.51000,1.5669017e-11,1.9761424e-13
320.52000,1.5446627e-11,1.9566469e-13
320.53000,1.5298350e-11,1.9441756e-13
320.54000,1.5181040e-11,1.9354864e-13
320.55000,1.5104391e-11,1.9286428e-13
320.56000,1.5048283e-11,1.9217210e-13
320.57000,1.4994627e-11,1.9163090e-13
320.58000,1.5020667e-11,1.9218200e-13
320.59000,1.5123009e-11,1.9375544e-13
320.60000,1.5255685e-11,1.9538457e-13
320.61000,1.5365126e-11,1.9646717e-13
320.62000,1.5389319e-11,1.9676080e-13
320.63000,1.5411176e-11,1.9695563e-13
320.64000,1.5568731e-11,1.9811348e-13
320.65000,1.5801214e-11,2.0016368e-13
320.66000,1.6020270e-11,2.0230956e-13
320.67000,1.6171726e-11,2.0410738e-13
320.68000,1.6251583e-11,2.0520966e-13
320.69000,1.6322986e-11,2.0593379e-13
320.70000,1.6445114e-11,2.0716837e-13
320.71000,1.6593560e-11,2.0834723e-13
320.72000,1.6710708e-11,2.0914618e-13
320.73000,1.6767552e-11,2.0979890e-13
320.74000,1.6777149e-11,2.0979716e-13
320.75000,1.6712665e-11,2.0889876e-13
320.76000,1.6581040e-11,2.0748452e-13
320.77000,1.6386953e-11,2.0514434e-13
320.78000,1.6087207e-11,2.0170994e-13
320.79000,1.5721854e-11,1.9845087e-13
320.80000,1.5360641e-11,1.9589178e-13
320.81000,1.5047627e-11,1.9276050e-13
320.82000,1.4785192e-11,1.8906256e-13
320.83000,1.4513569e-11,1.8601261e-13
320.84000,1.4203693e-11,1.8354260e-13
320.85000,1.3866664e-11,1.8107441e-13
320.86000,1.3486254e-11,1.7792871e-13
320.87000,1.3135158e-11,1.7428641e-13
320.88000,1.2878047e-11,1.7089714e-13
320.89000,1.2687067e-11,1.6841919e-13
320.90000,1.2596614e-11,1.6745048e-13
320.91000,1.2619915e-11,1.6765804e-13
320.92000,1.2671676e-11,1.6797056e-13
320.93000,1.2667339e-11,1.6771699e-13
320.94000,1.2610897e-11,1.6700508e-13
320.95000,1.2604074e-11,1.6680662e-13
320.96000,1.2721216e-11,1.6774218e-13
320.97000,1.2919482e-11,1.6934665e-13
320.98000,1.3065557e-11,1.7070908e-13
320.99000,1.3014467e-11,1.7064870e-13
321.00000,1.2765955e-11,1.6875160e-13
321.01000,1.2462046e-11,1.6582556e-13
321.02000,1.2269727e-11,1.6353178e-13
321.03000,1.2294389e-11,1.6351613e-13
321.04000,1.2485584e-11,1.6572779e-13
321.05000,1.2644774e-11,1.6755521e-13
321.06000,1.2702054e-11,1.6749827e-13
321.07000,1.2646651e-11,1.6619673e-13
321.08000,1.2552057e-11,1.6526580e-13
321.09000,1.2527092e-11,1.6540040e-13
321.10000,1.2529994e-11,1.6593544e-13
321.11000,1.2442806e-11,1.6512455e-13
321.12000,1.2235391e-11,1.6228701e-13
321.13000,1.2014220e-11,1.5949426e-13
321.14000,1.1927968e-11,1.5872638e-13
321.15000,1.2014405e-11,1.5974039e-13
321.16000,1.2133494e-11,1.6071291e-13
321.17000,1.2123214e-11,1.6091327e-13
321.18000,1.2050468e-11,1.6079868e-13
321.19000,1.2095695e-11,1.6122411e-13
321.20000,1.2289314e-11,1.6273938e-13
321.21000,1.2472047e-11,1.6400315e-13
321.22000,1.2488183e-11,1.6361448e-13
321.23000,1.2380807e-11,1.6277138e-13
321.24000,1.2274121e-11,1.6208259e-13
321.25000,1.2198606e-11,1.6124730e-13
321.26000,1.2101001e-11,1.6005205e-13
321.27000,1.1980870e-11,1.5873873e-13
321.28000,1.1895348e-11,1.5778376e-13
321.29000,1.1863042e-11,1.5718761e-13
321.30000,1.1901357e-11,1.5749641e-13
321.31000,1.2005990e-11,1.5861509e-13
321.32000,1.2114890e-11,1.5966325e-13
321.33000,1.2106039e-11,1.5946934e-13
321.34000,1.1943704e-11,1.5778727e-13
321.35000,1.1709168e-11,1.5509547e-13
321.36000,1.1514714e-11,1.5236882e-13
321.37000,1.1400020e-11,1.5056688e-13
321.38000,1.1325352e-11,1.4985232e-13
321.39000,1.1248265e-11,1.4966370e-13
321.40000,1.1135434e-11,1.4997908e-13
321.41000,1.0990314e-11,1.5134026e-13
321.42000,1.0918023e-11,1.5095593e-13
321.43000,1.1012232e-11,1.4916398e-13
321.44000,1.1228509e-11,1.4909275e-13
321.45000,1.1518693e-11,1.5052141e-13
321.46000,1.1870185e-11,1.5285291e-13
321.47000,1.2240600e-11,1.5561602e-13
321.48000,1.2498760e-11,1.5757077e-13
321.49000,1.2542081e-11,1.5796090e-13
321.50000,1.2517656e-11,1.5786541e-13
321.51000,1.2635195e-11,1.5875977e-13
321.52000,1.2918386e-11,1.6087947e-13
321.53000,1.3280932e-11,1.6372998e-13
321.54000,1.3631382e-11,1.6638020e-13
321.55000,1.3888490e-11,1.6818627e-13
321.56000,1.3987660e-11,1.6894985e-13
321.57000,1.4038707e-11,1.6967869e-13
321.58000,1.4177451e-11,1.7130756e-13
321.59000,1.4310175e-11,1.7253916e-13
321.60000,1.4273410e-11,1.7231108e-13
321.61000,1.4029796e-11,1.7063528e-13
321.62000,1.3627029e-11,1.6752895e-13
321.63000,1.3140269e-11,1.6359417e-13
321.64000,1.2674220e-11,1.6000618e-13
321.65000,1.2274630e-11,1.5682615e-13
321.66000,1.1852679e-11,1.5302694e-13
321.67000,1.1334842e-11,1.4817462e-13
321.68000,1.0827447e-11,1.4349561e-13
321.69000,1.0528410e-11,1.4087940e-13
321.70000,1.0463523e-11,1.4058045e-13
321.71000,1.0450581e-11,1.4089426e-13
321.72000,1.0449359e-11,1.4130769e-13
321.73000,1.0579930e-11,1.4258161e-13
321.74000,1.0753138e-11,1.4391310e-13
321.75000,1.0789022e-11,1.4410291e-13
321.76000,1.0794920e-11,1.4416473e-13
321.77000,1.0992232e-11,1.4601951e-13
321.78000,1.1382761e-11,1.4959414e-13
321.79000,1.1802311e-11,1.5337395e-13
321.80000,1.2206580e-11,1.5699606e-13
321.81000,1.2646409e-11,1.6073582e-13
321.82000,1.3110111e-11,1.6465677e-13
321.83000,1.3541244e-11,1.6830875e-13
321.84000,1.3919499e-11,1.7142352e-13
321.85000,1.4248853e-11,1.7424945e-13
321.86000,1.4541644e-11,1.7687226e-13
321.87000,1.4790376e-11,1.7905220e-13
321.88000,1.4939424e-11,1.8024403e-13
321.89000,1.4942637e-11,1.8014726e-13
321.90000,1.4827588e-11,1.7916008e-13
321.91000,1.4650552e-11,1.7755695e-13
321.92000,1.4483155e-11,1.7586603e-13
321.93000,1.4389535e-11,1.7494440e-13
321.94000,1.4406167e-11,1.7515042e-13
321.95000,1.4518103e-11,1.7599858e-13
321.96000,1.4653936e-11,1.7663064e-13
321.97000,1.4714137e-11,1.7664905e-13
321.98000,1.4654633e-11,1.7563290e-13
321.99000,1.4559880e-11,1.7453919e-13
322.00000,1.4559405e-11,1.7434137e-13
322.01000,1.4712262e-11,1.7572034e-13
322.02000,1.4972112e-11,1.7794715e-13
322.03000,1.5189029e-11,1.7903165e-13
322.04000,1.5281001e-11,1.7990667e-13
322.05000,1.5324657e-11,1.8000085e-13
322.06000,1.5366486e-11,1.7845481e-13
322.07000,1.5413827e-11,1.7840347e-13
322.08000,1.5537781e-11,1.8127166e-13
322.09000,1.5722620e-11,1.8350506e-13
322.10000,1.5828733e-11,1.8248233e-13
322.11000,1.5785027e-11,1.7995748e-13
322.12000,1.5628172e-11,1.7757389e-13
322.13000,1.5316230e-11,1.7466127e-13
322.14000,1.4910497e-11,1.7162484e-13
322.15000,1.4584449e-11,1.6979349e-13
322.16000,1.4361315e-11,1.6886995e-13
322.17000,1.4160736e-11,1.6781040e-13
322.18000,1.3976168e-11,1.6641285e-13
322.19000,1.3826601e-11,1.6487780e-13
322.20000,1.3668147e-11,1.6314300e-13
322.21000,1.3418952e-11,1.6091097e-13
322.22000,1.3125961e-11,1.5892780e-13
322.23000,1.2923106e-11,1.5837469e-13
322.24000,1.2829755e-11,1.5860016e-13
322.25000,1.2757991e-11,1.5781105e-13
322.26000,1.2739578e-11,1.5705600e-13
322.27000,1.2821366e-11,1.5842002e-13
322.28000,1.2934055e-11,1.6046069e-13
322.29000,1.3047717e-11,1.6126850e-13
322.30000,1.3193455e-11,1.6209182e-13
322.31000,1.3444707e-11,1.6401076e-13
322.32000,1.3845141e-11,1.6680641e-13
322.33000,1.4285029e-11,1.7036135e-13
322.34000,1.4560046e-11,1.7269443e-13
322.35000,1.4584699e-11,1.7317305e-13
322.36000,1.4457160e-11,1.7251188e-13
322.37000,1.4328924e-11,1.7168248e-13
322.38000,1.4300337e-11,1.7170190e-13
322.39000,1.4402030e-11,1.7286644e-13
322.40000,1.4553751e-11,1.7441867e-13
322.41000,1.4704763e-11,1.7593989e-13
322.42000,1.4857047e-11,1.7735360e-13
322.43000,1.4917125e-11,1.7757617e-13
322.44000,1.4817207e-11,1.7627463e-13
322.45000,1.4665152e-11,1.7488895e-13
322.46000,1.4606221e-11,1.7447243e-13
322.47000,1.4598027e-11,1.7450638e-13
322.48000,1.4532528e-11,1.7413826e-13
322.49000,1.4408318e-11,1.7317876e-13
322.50000,1.4150829e-11,1.7081429e-13
322.51000,1.3708132e-11,1.6692719e-13
322.52000,1.3308786e-11,1.6360445e-13
322.53000,1.3168393e-11,1.6235861e-13
322.54000,1.3231080e-11,1.6283605e-13
322.55000,1.3303604e-11,1.6371399e-13
322.56000,1.3293995e-11,1.6395353e-13
322.57000,1.3256225e-11,1.6372753e-13
322.58000,1.3239699e-11,1.6369691e-13
322.59000,1.3215863e-11,1.6351167e-13
322.60000,1.3145397e-11,1.6269530e-13
322.61000,1.3037529e-11,1.6159148e-13
322.62000,1.2982471e-11,1.6091498e-13
322.63000,1.3004610e-11,1.6091644e-13
322.64000,1.3020414e-11,1.6116517e-13
322.65000,1.2994775e-11,1.6121641e-13
322.66000,1.2971475e-11,1.6127679e-13
322.67000,1.2983607e-11,1.6156386e-13
322.68000,1.3032553e-11,1.6189819e-13
322.69000,1.3084674e-11,1.6193804e-13
322.70000,1.3077525e-11,1.6170531e-13
322.71000,1.3003012e-11,1.6132898e-13
322.72000,1.2878134e-11,1.6066350e-13
322.73000,1.2695543e-11,1.5942676e-13
322.74000,1.2452446e-11,1.5761467e-13
322.75000,1.2152719e-11,1.5529535e-13
322.76000,1.1850120e-11,1.5291731e-13
322.77000,1.1592494e-11,1.5102463e-13
322.78000,1.1309451e-11,1.4876622e-13
322.79000,1.1000588e-11,1.4575428e-13
322.80000,1.0812986e-11,1.4375586e-13
322.81000,1.0806908e-11,1.4379017e-13
322.82000,1.0861901e-11,1.4446058e-13
322.83000,1.0818616e-11,1.4414394e-13
322.84000,1.0608810e-11,1.4241207e-13
322.85000,1.0279165e-11,1.3952046e-13
322.86000,9.9167206e-12,1.3613506e-13
322.87000,9.6118719e-12,1.3314547e-13
322.88000,9.3821517e-12,1.3097647e-13
322.89000,9.2279827e-12,1.2979487e-13
322.90000,9.2210413e-12,1.2999187e-13
322.91000,9.3181643e-12,1.3090631e-13
322.92000,9.4284752e-12,1.3174598e-13
322.93000,9.5523044e-12,1.3254376e-13
322.94000,9.5906062e-12,1.3248508e-13
322.95000,9.5633467e-12,1.3179795e-13
322.96000,9.6339686e-12,1.3218053e-13
322.97000,9.8850446e-12,1.3420288e-13
322.98000,1.0273957e-11,1.3763011e-13
322.99000,1.0697177e-11,1.4130223e-13
323.00000,1.1031424e-11,1.4397515e-13
323.01000,1.1274049e-11,1.4617910e-13
323.02000,1.1454436e-11,1.4775487e-13
323.03000,1.1633917e-11,1.4888606e-13
323.04000,1.1925818e-11,1.5100088e-13
323.05000,1.2285018e-11,1.5356942e-13
323.06000,1.2588603e-11,1.5556274e-13
323.07000,1.2740073e-11,1.5697860e-13
323.08000,1.2710586e-11,1.5748614e-13
323.09000,1.2585642e-11,1.5669719e-13
323.10000,1.2401430e-11,1.5488909e-13
323.11000,1.2254413e-11,1.5357870e-13
323.12000,1.2273360e-11,1.5401209e-13
323.13000,1.2367420e-11,1.5466691e-13
323.14000,1.2325059e-11,1.5366233e-13
323.15000,1.2154477e-11,1.5179348e-13
323.16000,1.2009244e-11,1.5013057e-13
323.17000,1.1998736e-11,1.4989600e-13
323.18000,1.2064674e-11,1.5095750e-13
323.19000,1.2073162e-11,1.5145734e-13
323.20000,1.1962758e-11,1.5005404e-13
323.21000,1.1795075e-11,1.4764834e-13
323.22000,1.1701407e-11,1.4616840e-13
323.23000,1.1685997e-11,1.4574092e-13
323.24000,1.1635820e-11,1.4516943e-13
323.25000,1.1518288e-11,1.4415990e-13
323.26000,1.1457463e-11,1.4376500e-13
323.27000,1.1549395e-11,1.4459775e-13
323.28000,1.1753514e-11,1.4608971e-13
323.29000,1.1975271e-11,1.4772826e-13
323.30000,1.2104418e-11,1.4905558e-13
323.31000,1.2061610e-11,1.4938552e-13
323.32000,1.1961873e-11,1.4918691e-13
323.33000,1.2000772e-11,1.4941085e-13
323.34000,1.2210137e-11,1.5025201e-13
323.35000,1.2391623e-11,1.5084272e-13
323.36000,1.2371489e-11,1.4999556e-13
323.37000,1.2106667e-11,1.4740079e-13
323.38000,1.1718553e-11,1.4437605e-13
323.39000,1.1404644e-11,1.4213068e-13
323.40000,1.1260190e-11,1.4050263e-13
323.41000,1.1181727e-11,1.3921827e-13
323.42000,1.1047812e-11,1.3816205e-13
323.43000,1.0898277e-11,1.3731329e-13
323.44000,1.0870005e-11,1.3692343e-13
323.45000,1.0991420e-11,1.3733666e-13
323.46000,1.1093931e-11,1.3809723e-13
323.47000,1.1086466e-11,1.3812134e-13
323.48000,1.1099864e-11,1.3781370e-13
323.49000,1.1318159e-11,1.3935048e-13
323.50000,1.1778383e-11,1.4297425e-13
323.51000,1.2341028e-11,1.4693190e-13
323.52000,1.2796942e-11,1.5022276e-13
323.53000,1.3026722e-11,1.5190709e-13
323.54000,1.3090626e-11,1.5208833e-13
323.55000,1.3144426e-11,1.5220680e-13
323.56000,1.3258193e-11,1.5276957e-13
323.57000,1.3315150e-11,1.5317967e-13
323.58000,1.3176469e-11,1.5194807e-13
323.59000,1.2896396e-11,1.4938059e-13
323.60000,1.2626894e-11,1.4696663e-13
323.61000,1.2413889e-11,1.4516841e-13
323.62000,1.2165631e-11,1.4296420e-13
323.63000,1.1829803e-11,1.3993852e-13
323.64000,1.1532360e-11,1.3736865e-13
323.65000,1.1429725e-11,1.3650436e-13
323.66000,1.1468030e-11,1.3665980e-13
323.67000,1.1478811e-11,1.3647565e-13
323.68000,1.1442378e-11,1.3600876e-13
323.69000,1.1421785e-11,1.3572891e-13
323.70000,1.1438414e-11,1.3561098e-13
323.71000,1.1559610e-11,1.3644490e-13
323.72000,1.1806855e-11,1.3864002e-13
323.73000,1.2097714e-11,1.4130931e-13
323.74000,1.2331558e-11,1.4351833e-13
323.75000,1.2478502e-11,1.4499453e-13
323.76000,1.2640008e-11,1.4621994e-13
323.77000,1.2985300e-11,1.4829446e-13
323.78000,1.3463461e-11,1.5121984e-13
323.79000,1.3851840e-11,1.5381153e-13
323.80000,1.4062835e-11,1.5539971e-13
323.81000,1.4074641e-11,1.5559384e-13
323.82000,1.3880603e-11,1.5417818e-13
323.83000,1.3559104e-11,1.5172485e-13
323.84000,1.3276264e-11,1.4961539e-13
323.85000,1.3038751e-11,1.4792482e-13
323.86000,1.2742335e-11,1.4572540e-13
323.87000,1.2332438e-11,1.4263748e-13
323.88000,1.1895582e-11,1.3914268e-13
323.89000,1.1592761e-11,1.3647113e-13
323.90000,1.1424221e-11,1.3521119e-13
323.91000,1.1269065e-11,1.3442726e-13
323.92000,1.1107844e-11,1.3353242e-13
323.93000,1.0971942e-11,1.3265627e-13
323.94000,1.0890060e-11,1.3209034e-13
323.95000,1.0983634e-11,1.3280501e-13
323.96000,1.1221842e-11,1.3459263e-13
323.97000,1.1418789e-11,1.3597083e-13
323.98000,1.1521103e-11,1.3657279e-13
323.99000,1.1635503e-11,1.3723046e-13
324.00000,1.1953773e-11,1.3949927e-13
324.01000,1.2500375e-11,1.4390630e-13
324.02000,1.3074271e-11,1.4874921e-13
324.03000,1.3468980e-11,1.5195074e-13
324.04000,1.3650462e-11,1.5335760e-13
324.05000,1.3787719e-11,1.5446045e-13
324.06000,1.4012577e-11,1.5608372e-13
324.07000,1.4285906e-11,1.5790547e-13
324.08000,1.4561769e-11,1.5987962e-13
324.09000,1.4818735e-11,1.6179602e-13
324.10000,1.5006005e-11,1.6277587e-13
324.11000,1.5043218e-11,1.6231724e-13
324.12000,1.4848623e-11,1.6032588e-13
324.13000,1.4441120e-11,1.5701378e-13
324.14000,1.3952933e-11,1.5311867e-13
324.15000,1.3503152e-11,1.4949039e-13
324.16000,1.3091872e-11,1.4640567e-13
324.17000,1.2718373e-11,1.4388079e-13
324.18000,1.2433898e-11,1.4190681e-13
324.19000,1.2271143e-11,1.4045787e-13
324.20000,1.2211214e-11,1.3956697e-13
324.21000,1.2193936e-11,1.3895095e-13
324.22000,1.2180105e-11,1.3845406e-13
324.23000,1.2180146e-11,1.3835597e-13
324.24000,1.2246714e-11,1.3890358e-13
324.25000,1.2356735e-11,1.3965989e-13
324.26000,1.2459273e-11,1.4019595e-13
324.27000,1.2528442e-11,1.4035018e-13
324.28000,1.2532856e-11,1.3989494e-13
324.29000,1.2567717e-11,1.3965956e-13
324.30000,1.2704506e-11,1.4031320e-13
324.31000,1.2850116e-11,1.4139088e-13
324.32000,1.2988600e-11,1.4208156e-13
324.33000,1.3156627e-11,1.4345249e-13
324.34000,1.3299775e-11,1.4484412e-13
324.35000,1.3406941e-11,1.4509770e-13
324.36000,1.3508479e-11,1.4590644e-13
324.37000,1.3572479e-11,1.4749643e-13
324.38000,1.3526441e-11,1.4696505e-13
324.39000,1.3359815e-11,1.4420945e-13
324.40000,1.3290050e-11,1.4266115e-13
324.41000,1.3475641e-11,1.4430498e-13
324.42000,1.3804220e-11,1.4797247e-13
324.43000,1.4120177e-11,1.5208690e-13
324.44000,1.4331639e-11,1.5538354e-13
324.45000,1.4453627e-11,1.5716610e-13
324.46000,1.4615746e-11,1.5843967e-13
324.47000,1.4862240e-11,1.6022230e-13
324.48000,1.5118339e-11,1.6169594e-13
324.49000,1.5312965e-11,1.6170877e-13
324.50000,1.5430417e-11,1.6056434e-13
324.51000,1.5496851e-11,1.5942660e-13
324.52000,1.5564918e-11,1.5927025e-13
324.53000,1.5607520e-11,1.6020997e-13
324.54000,1.5651101e-11,1.6236636e-13
324.55000,1.5749044e-11,1.6433692e-13
324.56000,1.5803509e-11,1.6415397e-13
324.57000,1.5746786e-11,1.6342071e-13
324.58000,1.5650789e-11,1.6372329e-13
324.59000,1.5622090e-11,1.6402142e-13
324.60000,1.5636804e-11,1.6424085e-13
324.61000,1.5566390e-11,1.6429088e-13
324.62000,1.5415063e-11,1.6304794e-13
324.63000,1.5265663e-11,1.6151242e-13
324.64000,1.5122506e-11,1.6041264e-13
324.65000,1.4933549e-11,1.5939275e-13
324.66000,1.4629100e-11,1.5757293e-13
324.67000,1.4188298e-11,1.5453206e-13
324.68000,1.3662451e-11,1.5090363e-13
324.69000,1.3164222e-11,1.4749808e-13
324.70000,1.2818666e-11,1.4502568e-13
324.71000,1.2609982e-11,1.4334746e-13
324.72000,1.2432731e-11,1.4190770e-13
324.73000,1.2249864e-11,1.4060286e-13
324.74000,1.2130015e-11,1.3985532e-13
324.75000,1.2115145e-11,1.3978606e-13
324.76000,1.2123320e-11,1.3986731e-13
324.77000,1.2025184e-11,1.3932331e-13
324.78000,1.1814623e-11,1.3791437e-13
324.79000,1.1576950e-11,1.3616863e-13
324.80000,1.1396648e-11,1.3499474e-13
324.81000,1.1323009e-11,1.3468278e-13
324.82000,1.1293884e-11,1.3442902e-13
324.83000,1.1224496e-11,1.3374668e-13
324.84000,1.1162922e-11,1.3327318e-13
324.85000,1.1248307e-11,1.3394336e-13
324.86000,1.1474015e-11,1.3567450e-13
324.87000,1.1636235e-11,1.3705247e-13
324.88000,1.1648233e-11,1.3723920e-13
324.89000,1.1585277e-11,1.3666778e-13
324.90000,1.1516480e-11,1.3627434e-13
324.91000,1.1502839e-11,1.3663322e-13
324.92000,1.1582958e-11,1.3732531e-13
324.93000,1.1684415e-11,1.3783552e-13
324.94000,1.1720034e-11,1.3811364e-13
324.95000,1.1815113e-11,1.3907944e-13
324.96000,1.2057050e-11,1.4121622e-13
324.97000,1.2377783e-11,1.4388976e-13
324.98000,1.2701660e-11,1.4643025e-13
324.99000,1.2959622e-11,1.4852963e-13
325.00000,1.3116165e-11,1.4986240e-13
325.01000,1.3198956e-11,1.5044240e-13
325.02000,1.3235134e-11,1.5070125e-13
325.03000,1.3256059e-11,1.5091095e-13
325.04000,1.3271078e-11,1.5062972e-13
325.05000,1.3260760e-11,1.5005661e-13
325.06000,1.3285229e-11,1.5017444e-13
325.07000,1.3392212e-11,1.5124886e-13
325.08000,1.3515944e-11,1.5234160e-13
325.09000,1.3561614e-11,1.5256823e-13
325.10000,1.3493745e-11,1.5196304e-13
325.11000,1.3338157e-11,1.5083227e-13
325.12000,1.3162150e-11,1.4945657e-13
325.13000,1.3012516e-11,1.4804878e-13
325.14000,1.2875865e-11,1.4671098e-13
325.15000,1.2705048e-11,1.4530782e-13
325.16000,1.2538957e-11,1.4412377e-13
325.17000,1.2531385e-11,1.4409621e-13
325.18000,1.2741174e-11,1.4564669e-13
325.19000,1.3018621e-11,1.4778304e-13
325.20000,1.3097257e-11,1.4824858e-13
325.21000,1.2881986e-11,1.4613021e-13
325.22000,1.2569633e-11,1.4332420e-13
325.23000,1.2442187e-11,1.4232188e-13
325.24000,1.2540671e-11,1.4334870e-13
