wave,flux,fluxerr
320.00000,1.2704491e-11,2.0093219e-13
320.01000,1.2312320e-11,1.9548514e-13
320.02000,1.1981904e-11,1.9245996e-13
320.03000,1.1748761e-11,1.9166310e-13
320.04000,1.1647652e-11,1.9121172e-13
320.05000,1.1644466e-11,1.9004910e-13
320.06000,1.1720951e-11,1.9064692e-13
320.07000,1.1866388e-11,1.9323727e-13
320.08000,1.2017768e-11,1.9512572e-13
320.09000,1.2165911e-11,1.9677853e-13
320.10000,1.2361644e-11,1.9887801e-13
320.11000,1.2625501e-11,2.0134761e-13
320.12000,1.2894106e-11,2.0454971e-13
320.13000,1.3131380e-11,2.0720412e-13
320.14000,1.3405651e-11,2.0978408e-13
320.15000,1.3759999e-11,2.1318616e-13
320.16000,1.4105790e-11,2.1650398e-13
320.17000,1.4411771e-11,2.1883352e-13
320.18000,1.4634046e-11,2.2055141e-13
320.19000,1.4676893e-11,2.2127351e-13
320.20000,1.4510278e-11,2.2032262e-13
320.21000,1.4212458e-11,2.1801632e-13
320.22000,1.3929938e-11,2.1518439e-13
320.23000,1.3697509e-11,2.1212420e-13
320.24000,1.3483427e-11,2.0911756e-13
320.25000,1.3288492e-11,2.0664511e-13
320.26000,1.3142742e-11,2.0511067e-13
320.27000,1.3039155e-11,2.0414318e-13
320.28000,1.2895264e-11,2.0307960e-13
320.29000,1.2658629e-11,2.0139555e-13
320.30000,1.2404137e-11,1.9900167e-13
320.31000,1.2267336e-11,1.9705557e-13
320.32000,1.2238886e-11,1.9634453e-13
320.33000,1.2266674e-11,1.9669572e-13
320.34000,1.2393588e-11,1.9799032e-13
320.35000,1.2629306e-11,2.0022319e-13
320.36000,1.2948359e-11,2.0319824e-13
320.37000,1.3287109e-11,2.0633739e-13
320.38000,1.3602383e-11,2.0950759e-13
320.39000,1.3924820e-11,2.1262450e-13
320.40000,1.4274667e-11,2.1587489e-13
320.41000,1.4613795e-11,2.1980952e-13
320.42000,1.4857839e-11,2.2309834e-13
320.43000,1.5036720e-11,2.2486756e-13
320.44000,1.5276970e-11,2.2660515e-13
320.45000,1.5631735e-11,2.2947028e-13
320.46000,1.5935489e-11,2.3208254e-13
320.47000,1.6027049e-11,2.3338412e-13
320.48000,1.5928865e-11,2.3360829e-13
320.49000,1.5697242e-11,2.3214603e-13
320.50000,1.5357786e-11,2.2891039e-13
320.51000,1.4977421e-11,2.2502342e-13
320.52000,1.4644351e-11,2.2124373e-13
320.53000,1.4375222e-11,2.1811379e-13
320.54000,1.4099548e-11,2.1530169e-13
320.55000,1.3795804e-11,2.1240447e-13
320.56000,1.3594641e-11,2.1045827e-13
320.57000,1.3517619e-11,2.1003985e-13
320.58000,1.3477580e-11,2.1022532e-13
320.59000,1.3493158e-11,2.1031697e-13
320.60000,1.3634505e-11,2.1126269e-13
320.61000,1.3915542e-11,2.1405204e-13
320.62000,1.4282321e-11,2.1817230e-13
320.63000,1.4634455e-11,2.2241234e-13
320.64000,1.4875567e-11,2.2525978e-13
320.65000,1.5084883e-11,2.2721252e-13
320.66000,1.5282761e-11,2.2906286e-13
320.67000,1.5353324e-11,2.2986700e-13
320.68000,1.5347590e-11,2.2950973e-13
320.69000,1.5352013e-11,2.2948388e-13
320.70000,1.5371280e-11,2.3012156e-13
320.71000,1.5375145e-11,2.3067835e-13
320.72000,1.5413505e-11,2.3116795e-13
320.73000,1.5491021e-11,2.3154390e-13
320.74000,1.5502858e-11,2.3160616e-13
320.75000,1.5491536e-11,2.3157376e-13
320.76000,1.5555000e-11,2.3203436e-13
320.77000,1.5607824e-11,2.3257477e-13
320.78000,1.5534344e-11,2.3155045e-13
320.79000,1.5349655e-11,2.2921748e-13
320.80000,1.5091272e-11,2.2677367e-13
320.81000,1.4788012e-11,2.2392734e-13
320.82000,1.4496609e-11,2.2078893e-13
320.83000,1.4230387e-11,2.1817341e-13
320.84000,1.3922664e-11,2.1553268e-13
320.85000,1.3564256e-11,2.1174649e-13
320.86000,1.3146480e-11,2.0651080e-13
320.87000,1.2639164e-11,2.0060913e-13
320.88000,1.2117716e-11,1.9517540e-13
320.89000,1.1714018e-11,1.9152643e-13
320.90000,1.1436725e-11,1.8894989e-13
320.91000,1.1259863e-11,1.8643384e-13
320.92000,1.1196307e-11,1.8483059e-13
320.93000,1.1220802e-11,1.8468895e-13
320.94000,1.1347507e-11,1.8570603e-13
320.95000,1.1566535e-11,1.8752016e-13
320.96000,1.1821990e-11,1.8984817e-13
320.97000,1.2041292e-11,1.9201731e-13
320.98000,1.2134068e-11,1.9305683e-13
320.99000,1.2029795e-11,1.9233099e-13
321.00000,1.1819546e-11,1.9047354e-13
321.01000,1.1646863e-11,1.8850836e-13
321.02000,1.1519419e-11,1.8689740e-13
321.03000,1.1405435e-11,1.8565540e-13
321.04000,1.1290922e-11,1.8427971e-13
321.05000,1.1134647e-11,1.8226451e-13
321.06000,1.0977867e-11,1.8053002e-13
321.07000,1.0889353e-11,1.7969759e-13
321.08000,1.0883469e-11,1.7921265e-13
321.09000,1.0903089e-11,1.7891814e-13
321.10000,1.0871086e-11,1.7921621e-13
321.11000,1.0846139e-11,1.8004830e-13
321.12000,1.0913308e-11,1.8041568e-13
321.13000,1.0985694e-11,1.8016193e-13
321.14000,1.0952287e-11,1.7965469e-13
321.15000,1.0866086e-11,1.7913037e-13
321.16000,1.0809545e-11,1.7872716e-13
321.17000,1.0753755e-11,1.7736040e-13
321.18000,1.0661065e-11,1.7540342e-13
321.19000,1.0528230e-11,1.7407396e-13
321.20000,1.0429250e-11,1.7351522e-13
321.21000,1.0364789e-11,1.7284858e-13
321.22000,1.0309047e-11,1.7264626e-13
321.23000,1.0308513e-11,1.7340543e-13
321.24000,1.0362883e-11,1.7368069e-13
321.25000,1.0435864e-11,1.7388075e-13
321.26000,1.0529041e-11,1.7496544e-13
321.27000,1.0675952e-11,1.7635918e-13
321.28000,1.0820524e-11,1.7771999e-13
321.29000,1.0859491e-11,1.7791669e-13
321.30000,1.0842854e-11,1.7724741e-13
321.31000,1.0849456e-11,1.7666740e-13
321.32000,1.0856835e-11,1.7622393e-13
321.33000,1.0823091e-11,1.7594074e-13
321.34000,1.0750849e-11,1.7543275e-13
321.35000,1.0618078e-11,1.7424892e-13
321.36000,1.0390044e-11,1.7198365e-13
321.37000,1.0091976e-11,1.6903833e-13
321.38000,9.8173912e-12,1.6613124e-13
321.39000,9.6355480e-12,1.6361397e-13
321.40000,9.5819539e-12,1.6205322e-13
321.41000,9.6363886e-12,1.6193053e-13
321.42000,9.7248273e-12,1.6284743e-13
321.43000,9.8421174e-12,1.6421238e-13
321.44000,1.0017648e-11,1.6645962e-13
321.45000,1.0267482e-11,1.7014173e-13
321.46000,1.0516046e-11,1.7274421e-13
321.47000,1.0667316e-11,1.7270899e-13
321.48000,1.0790746e-11,1.7262996e-13
321.49000,1.0945749e-11,1.7356500e-13
321.50000,1.1123413e-11,1.7466592e-13
321.51000,1.1358236e-11,1.7613089e-13
321.52000,1.1658488e-11,1.7860736e-13
321.53000,1.1980643e-11,1.8176928e-13
321.54000,1.2223450e-11,1.8403294e-13
321.55000,1.2326450e-11,1.8474682e-13
321.56000,1.2370038e-11,1.8501441e-13
321.57000,1.2483093e-11,1.8578149e-13
321.58000,1.2691378e-11,1.8696581e-13
321.59000,1.2936047e-11,1.8849039e-13
321.60000,1.3133534e-11,1.9034486e-13
321.61000,1.3201788e-11,1.9149633e-13
321.62000,1.3103752e-11,1.9104567e-13
321.63000,1.2905183e-11,1.8958179e-13
321.64000,1.2658979e-11,1.8756974e-13
321.65000,1.2341675e-11,1.8475224e-13
321.66000,1.1964516e-11,1.8136414e-13
321.67000,1.1532060e-11,1.7762299e-13
321.68000,1.1065931e-11,1.7355286e-13
321.69000,1.0601753e-11,1.6923904e-13
321.70000,1.0234047e-11,1.6564615e-13
321.71000,1.0025768e-11,1.6335477e-13
321.72000,9.9187681e-12,1.6189191e-13
321.73000,9.8292838e-12,1.6080539e-13
321.74000,9.7659548e-12,1.6056719e-13
321.75000,9.7916770e-12,1.6150841e-13
321.76000,9.9485021e-12,1.6353017e-13
321.77000,1.0174457e-11,1.6603501e-13
321.78000,1.0457502e-11,1.6888237e-13
321.79000,1.0854562e-11,1.7242995e-13
321.80000,1.1344332e-11,1.7668377e-13
321.81000,1.1870829e-11,1.8171184e-13
321.82000,1.2419409e-11,1.8731534e-13
321.83000,1.3009315e-11,1.9276990e-13
321.84000,1.3598330e-11,1.9785858e-13
321.85000,1.4050929e-11,2.0205065e-13
321.86000,1.4305038e-11,2.0459728e-13
321.87000,1.4453307e-11,2.0606629e-13
321.88000,1.4600787e-11,2.0760099e-13
321.89000,1.4757205e-11,2.0957321e-13
321.90000,1.4850958e-11,2.1099314e-13
321.91000,1.4819014e-11,2.1096661e-13
321.92000,1.4672622e-11,2.0988059e-13
321.93000,1.4458074e-11,2.0798742e-13
321.94000,1.4248420e-11,2.0566334e-13
321.95000,1.4079050e-11,2.0346409e-13
321.96000,1.3948694e-11,2.0195008e-13
321.97000,1.3799179e-11,2.0073044e-13
321.98000,1.3648830e-11,1.9948298e-13
321.99000,1.3553625e-11,1.9859580e-13
322.00000,1.3486884e-11,1.9775042e-13
322.01000,1.3453729e-11,1.9692061e-13
322.02000,1.3513504e-11,1.9691190e-13
322.03000,1.3709252e-11,1.9840288e-13
322.04000,1.3955362e-11,2.0048851e-13
322.05000,1.4187881e-11,2.0247182e-13
322.06000,1.4465432e-11,2.0466897e-13
322.07000,1.4770367e-11,2.0791603e-13
322.08000,1.5080242e-11,2.1010479e-13
322.09000,1.5379927e-11,2.1115902e-13
322.10000,1.5576870e-11,2.1293335e-13
322.11000,1.5560978e-11,2.1282010e-13
322.12000,1.5334455e-11,2.0958609e-13
322.13000,1.4993179e-11,2.0642837e-13
322.14000,1.4590818e-11,2.0452320e-13
322.15000,1.4138975e-11,2.0183668e-13
322.16000,1.3709902e-11,1.9692047e-13
322.17000,1.3329529e-11,1.9080771e-13
322.18000,1.2945586e-11,1.8499783e-13
322.19000,1.2596902e-11,1.8074236e-13
322.20000,1.2310662e-11,1.7824156e-13
322.21000,1.2068859e-11,1.7696771e-13
322.22000,1.1853237e-11,1.7595635e-13
322.23000,1.1670050e-11,1.7491507e-13
322.24000,1.1527625e-11,1.7422513e-13
322.25000,1.1406135e-11,1.7419617e-13
322.26000,1.1333885e-11,1.7521051e-13
322.27000,1.1331452e-11,1.7626158e-13
322.28000,1.1413290e-11,1.7603988e-13
322.29000,1.1575046e-11,1.7566370e-13
322.30000,1.1777550e-11,1.7737917e-13
322.31000,1.2000942e-11,1.8130102e-13
322.32000,1.2191561e-11,1.8428235e-13
322.33000,1.2333754e-11,1.8511682e-13
322.34000,1.2478226e-11,1.8637763e-13
322.35000,1.2652991e-11,1.8790019e-13
322.36000,1.2818683e-11,1.8864215e-13
322.37000,1.2933064e-11,1.8969431e-13
322.38000,1.3024050e-11,1.9075648e-13
322.39000,1.3221570e-11,1.9277566e-13
322.40000,1.3544244e-11,1.9579006e-13
322.41000,1.3847146e-11,1.9850559e-13
322.42000,1.4020717e-11,2.0024217e-13
322.43000,1.4064024e-11,2.0104577e-13
322.44000,1.4051317e-11,2.0159056e-13
322.45000,1.3968058e-11,2.0129098e-13
322.46000,1.3815781e-11,1.9981294e-13
322.47000,1.3713320e-11,1.9862550e-13
322.48000,1.3643096e-11,1.9770144e-13
322.49000,1.3510253e-11,1.9617749e-13
322.50000,1.3308208e-11,1.9433185e-13
322.51000,1.3076787e-11,1.9262626e-13
322.52000,1.2823392e-11,1.9055467e-13
322.53000,1.2599469e-11,1.8839592e-13
322.54000,1.2380492e-11,1.8621653e-13
322.55000,1.2083641e-11,1.8331418e-13
322.56000,1.1707045e-11,1.7965667e-13
322.57000,1.1348154e-11,1.7629168e-13
322.58000,1.1126717e-11,1.7448978e-13
322.59000,1.1032716e-11,1.7404645e-13
322.60000,1.1031531e-11,1.7433081e-13
322.61000,1.1105275e-11,1.7507687e-13
322.62000,1.1188687e-11,1.7577059e-13
322.63000,1.1193945e-11,1.7586248e-13
322.64000,1.1122721e-11,1.7526371e-13
322.65000,1.1068142e-11,1.7463202e-13
322.66000,1.1126225e-11,1.7495129e-13
322.67000,1.1304498e-11,1.7648585e-13
322.68000,1.1517133e-11,1.7854146e-13
322.69000,1.1695600e-11,1.8044005e-13
322.70000,1.1824187e-11,1.8212259e-13
322.71000,1.1856858e-11,1.8263736e-13
322.72000,1.1743886e-11,1.8124497e-13
322.73000,1.1469070e-11,1.7847326e-13
322.74000,1.1091046e-11,1.7506040e-13
322.75000,1.0694321e-11,1.7143760e-13
322.76000,1.0297231e-11,1.6784051e-13
322.77000,9.9331598e-12,1.6475311e-13
322.78000,9.6389597e-12,1.6237691e-13
322.79000,9.4603073e-12,1.6098293e-13
322.80000,9.3420642e-12,1.6002625e-13
322.81000,9.1974194e-12,1.5865858e-13
322.82000,9.0402728e-12,1.5703514e-13
322.83000,8.9049074e-12,1.5534842e-13
322.84000,8.7703312e-12,1.5362855e-13
322.85000,8.6574820e-12,1.5258646e-13
322.86000,8.5648956e-12,1.5221439e-13
322.87000,8.4992246e-12,1.5201776e-13
322.88000,8.5042331e-12,1.5203759e-13
322.89000,8.5752601e-12,1.5236170e-13
322.90000,8.6596532e-12,1.5265839e-13
322.91000,8.7068095e-12,1.5268400e-13
322.92000,8.7024469e-12,1.5255570e-13
322.93000,8.6512824e-12,1.5218484e-13
322.94000,8.5426405e-12,1.5132124e-13
322.95000,8.4040662e-12,1.5008655e-13
322.96000,8.2978887e-12,1.4888505e-13
322.97000,8.2679124e-12,1.4818352e-13
322.98000,8.3277812e-12,1.4823475e-13
322.99000,8.4608620e-12,1.4900646e-13
323.00000,8.6383241e-12,1.5040340e-13
323.01000,8.9172770e-12,1.5289222e-13
323.02000,9.2930181e-12,1.5643016e-13
323.03000,9.7046143e-12,1.6022568e-13
323.04000,1.0091356e-11,1.6388510e-13
323.05000,1.0444504e-11,1.6736962e-13
323.06000,1.0763978e-11,1.7051767e-13
323.07000,1.1030200e-11,1.7308085e-13
323.08000,1.1233143e-11,1.7430771e-13
323.09000,1.1376230e-11,1.7464924e-13
323.10000,1.1506526e-11,1.7574022e-13
323.11000,1.1656208e-11,1.7734329e-13
323.12000,1.1775687e-11,1.7838866e-13
323.13000,1.1855168e-11,1.7947222e-13
323.14000,1.1937822e-11,1.8081128e-13
323.15000,1.1984230e-11,1.8112507e-13
323.16000,1.1931176e-11,1.7991019e-13
323.17000,1.1808023e-11,1.7837023e-13
323.18000,1.1691317e-11,1.7728868e-13
323.19000,1.1680711e-11,1.7753839e-13
323.20000,1.1799433e-11,1.7895202e-13
323.21000,1.1999954e-11,1.8017299e-13
323.22000,1.2179540e-11,1.8054738e-13
323.23000,1.2235317e-11,1.8000088e-13
323.24000,1.2183815e-11,1.7892788e-13
323.25000,1.2075961e-11,1.7771752e-13
323.26000,1.1932024e-11,1.7632866e-13
323.27000,1.1777102e-11,1.7481597e-13
323.28000,1.1688921e-11,1.7410751e-13
323.29000,1.1695183e-11,1.7460190e-13
323.30000,1.1729343e-11,1.7529122e-13
323.31000,1.1730100e-11,1.7515595e-13
323.32000,1.1718369e-11,1.7452721e-13
323.33000,1.1759354e-11,1.7426374e-13
323.34000,1.1854219e-11,1.7454508e-13
323.35000,1.1907014e-11,1.7475167e-13
323.36000,1.1871036e-11,1.7454443e-13
323.37000,1.1815922e-11,1.7426144e-13
323.38000,1.1736093e-11,1.7351825e-13
323.39000,1.1606739e-11,1.7235875e-13
323.40000,1.1418470e-11,1.7111318e-13
323.41000,1.1170882e-11,1.6926312e-13
323.42000,1.0927246e-11,1.6618364e-13
323.43000,1.0643872e-11,1.6222964e-13
323.44000,1.0265723e-11,1.5830726e-13
323.45000,9.8818367e-12,1.5522050e-13
323.46000,9.6195270e-12,1.5342787e-13
323.47000,9.5133009e-12,1.5218768e-13
323.48000,9.5443651e-12,1.5181230e-13
323.49000,9.7125345e-12,1.5336527e-13
323.50000,1.0036283e-11,1.5648005e-13
323.51000,1.0431916e-11,1.5956897e-13
323.52000,1.0860884e-11,1.6297832e-13
323.53000,1.1323241e-11,1.6696409e-13
323.54000,1.1759866e-11,1.7018259e-13
323.55000,1.2148353e-11,1.7299919e-13
323.56000,1.2499452e-11,1.7602695e-13
323.57000,1.2797323e-11,1.7831820e-13
323.58000,1.2948398e-11,1.7909087e-13
323.59000,1.2923510e-11,1.7834513e-13
323.60000,1.2745085e-11,1.7654859e-13
323.61000,1.2389386e-11,1.7353355e-13
323.62000,1.1872753e-11,1.6894063e-13
323.63000,1.1329003e-11,1.6401861e-13
323.64000,1.0859516e-11,1.5965329e-13
323.65000,1.0446620e-11,1.5569043e-13
323.66000,1.0106188e-11,1.5226598e-13
323.67000,9.9034842e-12,1.5026185e-13
323.68000,9.8430580e-12,1.4962937e-13
323.69000,9.8693948e-12,1.4962900e-13
323.70000,9.9730815e-12,1.5021521e-13
323.71000,1.0172768e-11,1.5165777e-13
323.72000,1.0458629e-11,1.5384277e-13
323.73000,1.0799779e-11,1.5650093e-13
323.74000,1.1174389e-11,1.5946920e-13
323.75000,1.1516456e-11,1.6233079e-13
323.76000,1.1814599e-11,1.6526553e-13
323.77000,1.2179929e-11,1.6888038e-13
323.78000,1.2604981e-11,1.7294163e-13
323.79000,1.2977532e-11,1.7668233e-13
323.80000,1.3270329e-11,1.7917018e-13
323.81000,1.3462598e-11,1.7998625e-13
323.82000,1.3528120e-11,1.7973181e-13
323.83000,1.3494397e-11,1.7901324e-13
323.84000,1.3391292e-11,1.7780542e-13
323.85000,1.3193613e-11,1.7593637e-13
323.86000,1.2881721e-11,1.7350704e-13
323.87000,1.2539972e-11,1.7097452e-13
323.88000,1.2201170e-11,1.6817352e-13
323.89000,1.1843138e-11,1.6521282e-13
323.90000,1.1479610e-11,1.6236590e-13
323.91000,1.1086032e-11,1.5889663e-13
323.92000,1.0636824e-11,1.5470387e-13
323.93000,1.0216330e-11,1.5090506e-13
323.94000,9.8897038e-12,1.4815188e-13
323.95000,9.6451960e-12,1.4641425e-13
323.96000,9.5220942e-12,1.4585302e-13
323.97000,9.5759169e-12,1.4658794e-13
323.98000,9.8113425e-12,1.4862880e-13
323.99000,1.0193104e-11,1.5204101e-13
324.00000,1.0687218e-11,1.5660442e-13
324.01000,1.1229904e-11,1.6123685e-13
324.02000,1.1796400e-11,1.6550705e-13
324.03000,1.2346275e-11,1.6962320e-13
324.04000,1.2833579e-11,1.7358990e-13
324.05000,1.3272029e-11,1.7740510e-13
324.06000,1.3674799e-11,1.8099422e-13
324.07000,1.3984630e-11,1.8384880e-13
324.08000,1.4209746e-11,1.8586771e-13
324.09000,1.4446345e-11,1.8768062e-13
324.10000,1.4646378e-11,1.8907728e-13
324.11000,1.4696739e-11,1.8929680e-13
324.12000,1.4596213e-11,1.8829659e-13
324.13000,1.4401781e-11,1.8643067e-13
324.14000,1.4169566e-11,1.8419158e-13
324.15000,1.3838903e-11,1.8117013e-13
324.16000,1.3428365e-11,1.7747194e-13
324.17000,1.3030005e-11,1.7378623e-13
324.18000,1.2668371e-11,1.7040479e-13
324.19000,1.2386603e-11,1.6781869e-13
324.20000,1.2187638e-11,1.6610097e-13
324.21000,1.2018614e-11,1.6478468e-13
324.22000,1.1911842e-11,1.6387507e-13
324.23000,1.1910735e-11,1.6339122e-13
324.24000,1.1945725e-11,1.6299839e-13
324.25000,1.1924597e-11,1.6241008e-13
324.26000,1.1875877e-11,1.6195954e-13
324.27000,1.1899339e-11,1.6219122e-13
324.28000,1.2069127e-11,1.6346426e-13
324.29000,1.2316653e-11,1.6542286e-13
324.30000,1.2572546e-11,1.6737976e-13
324.31000,1.2828217e-11,1.6904219e-13
324.32000,1.3028189e-11,1.7003789e-13
324.33000,1.3132166e-11,1.7053383e-13
324.34000,1.3168176e-11,1.7052990e-13
324.35000,1.3119461e-11,1.7022566e-13
324.36000,1.2953018e-11,1.6883990e-13
324.37000,1.2714596e-11,1.6676429e-13
324.38000,1.2464973e-11,1.6502053e-13
324.39000,1.2290318e-11,1.6315750e-13
324.40000,1.2234051e-11,1.6270351e-13
324.41000,1.2307383e-11,1.6446317e-13
324.42000,1.2520683e-11,1.6605757e-13
324.43000,1.2780322e-11,1.6649966e-13
324.44000,1.3034736e-11,1.6757407e-13
324.45000,1.3300688e-11,1.7046632e-13
324.46000,1.3590149e-11,1.7481807e-13
324.47000,1.3873136e-11,1.7904879e-13
324.48000,1.4110117e-11,1.8147389e-13
324.49000,1.4314562e-11,1.8244086e-13
324.50000,1.4565374e-11,1.8371329e-13
324.51000,1.4820606e-11,1.8551170e-13
324.52000,1.4946789e-11,1.8688692e-13
324.53000,1.4985278e-11,1.8810875e-13
324.54000,1.5033119e-11,1.8938566e-13
324.55000,1.5043613e-11,1.8914761e-13
324.56000,1.4945495e-11,1.8671764e-13
324.57000,1.4756820e-11,1.8368475e-13
324.58000,1.4577511e-11,1.8184591e-13
324.59000,1.4473731e-11,1.8217117e-13
324.60000,1.4419047e-11,1.8350870e-13
324.61000,1.4410643e-11,1.8361369e-13
324.62000,1.4457425e-11,1.8340055e-13
324.63000,1.4519917e-11,1.8474391e-13
324.64000,1.4580677e-11,1.8609665e-13
324.65000,1.4593146e-11,1.8610618e-13
324.66000,1.4504818e-11,1.8556541e-13
324.67000,1.4282121e-11,1.8360344e-13
324.68000,1.3913861e-11,1.8028010e-13
324.69000,1.3443914e-11,1.7660592e-13
324.70000,1.2936987e-11,1.7297180e-13
324.71000,1.2454660e-11,1.6945667e-13
324.72000,1.2058666e-11,1.6628036e-13
324.73000,1.1771522e-11,1.6410091e-13
324.74000,1.1545878e-11,1.6259645e-13
324.75000,1.1378822e-11,1.6132101e-13
324.76000,1.1262444e-11,1.6026412e-13
324.77000,1.1179558e-11,1.5960720e-13
324.78000,1.1109407e-11,1.5912361e-13
324.79000,1.1024752e-11,1.5864280e-13
324.80000,1.0940594e-11,1.5833835e-13
324.81000,1.0874007e-11,1.5802304e-13
324.82000,1.0822007e-11,1.5759129e-13
324.83000,1.0795571e-11,1.5750790e-13
324.84000,1.0844438e-11,1.5826359e-13
324.85000,1.0961288e-11,1.5953741e-13
324.86000,1.1035418e-11,1.6047717e-13
324.87000,1.1008400e-11,1.6055950e-13
324.88000,1.0929113e-11,1.5984558e-13
324.89000,1.0796791e-11,1.5843859e-13
324.90000,1.0573071e-11,1.5640351e-13
324.91000,1.0359987e-11,1.5468744e-13
324.92000,1.0245529e-11,1.5387874e-13
324.93000,1.0244403e-11,1.5388406e-13
324.94000,1.0389156e-11,1.5503629e-13
324.95000,1.0660889e-11,1.5757546e-13
324.96000,1.0997378e-11,1.6074087e-13
324.97000,1.1375397e-11,1.6375101e-13
324.98000,1.1744399e-11,1.6673455e-13
324.99000,1.1991522e-11,1.6918607e-13
325.00000,1.2122948e-11,1.7105530e-13
325.01000,1.2188902e-11,1.7233101e-13
325.02000,1.2134916e-11,1.7188495e-13
325.03000,1.2022837e-11,1.7060978e-13
325.04000,1.2026058e-11,1.7053333e-13
325.05000,1.2129060e-11,1.7127469e-13
325.06000,1.2216988e-11,1.7185792e-13
325.07000,1.2259051e-11,1.7220305e-13
325.08000,1.2243195e-11,1.7207000e-13
325.09000,1.2197342e-11,1.7154773e-13
325.10000,1.2171304e-11,1.7110291e-13
325.11000,1.2161458e-11,1.7115565e-13
325.12000,1.2154423e-11,1.7159845e-13
325.13000,1.2102569e-11,1.7125472e-13
325.14000,1.1985214e-11,1.6990250e-13
325.15000,1.1897614e-11,1.6906097e-13
325.16000,1.1908991e-11,1.6918417e-13
325.17000,1.2044561e-11,1.6999787e-13
325.18000,1.2246481e-11,1.7109031e-13
325.19000,1.2403440e-11,1.7198008e-13
325.20000,1.2496329e-11,1.7277679e-13
325.21000,1.2574311e-11,1.7357123e-13
325.22000,1.2611498e-11,1.7381974e-13
325.23000,1.2549765e-11,1.7324022e-13
325.24000,1.2427277e-11,1.7221550e-13
