wave,flux,fluxerr
320.00000,1.4897053e-11,1.6417213e-13
320.01000,1.5154131e-11,1.6530662e-13
320.02000,1.5668359e-11,1.6917840e-13
320.03000,1.6099108e-11,1.7232260e-13
320.04000,1.6030355e-11,1.7211797e-13
320.05000,1.5302529e-11,1.6730512e-13
320.06000,1.4189259e-11,1.5927069e-13
320.07000,1.3176588e-11,1.5202628e-13
320.08000,1.2701114e-11,1.4870995e-13
320.09000,1.2958599e-11,1.5068206e-13
320.10000,1.3854954e-11,1.5731867e-13
320.11000,1.5008238e-11,1.6598594e-13
320.12000,1.5999201e-11,1.7344889e-13
320.13000,1.6652959e-11,1.7817885e-13
320.14000,1.7088745e-11,1.8117231e-13
320.15000,1.7525424e-11,1.8424787e-13
320.16000,1.8000020e-11,1.8754296e-13
320.17000,1.8484090e-11,1.9112135e-13
320.18000,1.8971552e-11,1.9495422e-13
320.19000,1.9412860e-11,1.9821572e-13
320.20000,1.9778912e-11,2.0061581e-13
320.21000,2.0001815e-11,2.0173612e-13
320.22000,1.9971385e-11,2.0083624e-13
320.23000,1.9633538e-11,1.9774922e-13
320.24000,1.8951954e-11,1.9272027e-13
320.25000,1.7919139e-11,1.8578524e-13
320.26000,1.6491190e-11,1.7586560e-13
320.27000,1.4860805e-11,1.6392660e-13
320.28000,1.3365116e-11,1.5268587e-13
320.29000,1.2432683e-11,1.4542921e-13
320.30000,1.2421617e-11,1.4516215e-13
320.31000,1.3408154e-11,1.5255923e-13
320.32000,1.5111838e-11,1.6520136e-13
320.33000,1.6847373e-11,1.7790250e-13
320.34000,1.7847600e-11,1.8520136e-13
320.35000,1.7743542e-11,1.8441831e-13
320.36000,1.6755742e-11,1.7709479e-13
320.37000,1.5533830e-11,1.6842991e-13
320.38000,1.4722873e-11,1.6309515e-13
320.39000,1.4774240e-11,1.6388405e-13
320.40000,1.5749031e-11,1.7106281e-13
320.41000,1.7279798e-11,1.8184437e-13
320.42000,1.8761277e-11,1.9197242e-13
320.43000,1.9776166e-11,1.9902115e-13
320.44000,2.0293016e-11,2.0307312e-13
320.45000,2.0487926e-11,2.0515352e-13
320.46000,2.0593971e-11,2.0655288e-13
320.47000,2.0809584e-11,2.0824794e-13
320.48000,2.1160211e-11,2.1023773e-13
320.49000,2.1504893e-11,2.1208764e-13
320.50000,2.1665114e-11,2.1329463e-13
320.51000,2.1438870e-11,2.1188456e-13
320.52000,2.0710761e-11,2.0659371e-13
320.53000,1.9495114e-11,1.9790580e-13
320.54000,1.7972069e-11,1.8706492e-13
320.55000,1.6359151e-11,1.7539715e-13
320.56000,1.5017034e-11,1.6555924e-13
320.57000,1.4296047e-11,1.6012059e-13
320.58000,1.4338146e-11,1.6040969e-13
320.59000,1.5057291e-11,1.6615606e-13
320.60000,1.6132265e-11,1.7457669e-13
320.61000,1.7171250e-11,1.8249853e-13
320.62000,1.7880173e-11,1.8782874e-13
320.63000,1.8231222e-11,1.9055337e-13
320.64000,1.8498928e-11,1.9260051e-13
320.65000,1.8912085e-11,1.9553073e-13
320.66000,1.9477643e-11,1.9983586e-13
320.67000,2.0125833e-11,2.0469351e-13
320.68000,2.0716552e-11,2.0908618e-13
320.69000,2.1005691e-11,2.1131421e-13
320.70000,2.0852949e-11,2.1001462e-13
320.71000,2.0243750e-11,2.0554556e-13
320.72000,1.9272774e-11,1.9877236e-13
320.73000,1.8259126e-11,1.9138329e-13
320.74000,1.7583977e-11,1.8630233e-13
320.75000,1.7504208e-11,1.8608193e-13
320.76000,1.8023399e-11,1.9037255e-13
320.77000,1.8845216e-11,1.9613050e-13
320.78000,1.9622523e-11,2.0090779e-13
320.79000,2.0171172e-11,2.0441157e-13
320.80000,2.0457243e-11,2.0633168e-13
320.81000,2.0495910e-11,2.0660004e-13
320.82000,2.0390245e-11,2.0568957e-13
320.83000,2.0142798e-11,2.0314576e-13
320.84000,1.9536002e-11,1.9756726e-13
320.85000,1.8380260e-11,1.8835457e-13
320.86000,1.6689744e-11,1.7606913e-13
320.87000,1.4722140e-11,1.6171062e-13
320.88000,1.3032382e-11,1.4884623e-13
320.89000,1.2114235e-11,1.4162348e-13
320.90000,1.2169030e-11,1.4193525e-13
320.91000,1.3029572e-11,1.4842839e-13
320.92000,1.4063144e-11,1.5602388e-13
320.93000,1.4482362e-11,1.5882851e-13
320.94000,1.3974827e-11,1.5494754e-13
320.95000,1.2987909e-11,1.4770334e-13
320.96000,1.2357059e-11,1.4294123e-13
320.97000,1.2713879e-11,1.4546782e-13
320.98000,1.4084133e-11,1.5567750e-13
320.99000,1.5953425e-11,1.6954158e-13
321.00000,1.7531885e-11,1.8101326e-13
321.01000,1.8241969e-11,1.8631984e-13
321.02000,1.7969531e-11,1.8502109e-13
321.03000,1.6955829e-11,1.7797145e-13
321.04000,1.5488043e-11,1.6633277e-13
321.05000,1.3765505e-11,1.5249602e-13
321.06000,1.2055527e-11,1.3937866e-13
321.07000,1.0702642e-11,1.2948491e-13
321.08000,9.9643978e-12,1.2429505e-13
321.09000,9.9384152e-12,1.2404715e-13
321.10000,1.0487375e-11,1.2829091e-13
321.11000,1.1456486e-11,1.3614333e-13
321.12000,1.2695190e-11,1.4536357e-13
321.13000,1.4063960e-11,1.5436704e-13
321.14000,1.5382350e-11,1.6330271e-13
321.15000,1.6420725e-11,1.7098634e-13
321.16000,1.6881692e-11,1.7410767e-13
321.17000,1.6466089e-11,1.7095909e-13
321.18000,1.5219664e-11,1.6247801e-13
321.19000,1.3507927e-11,1.5044624e-13
321.20000,1.1773330e-11,1.3786175e-13
321.21000,1.0364646e-11,1.2723627e-13
321.22000,9.5108126e-12,1.2048180e-13
321.23000,9.3334373e-12,1.1896797e-13
321.24000,9.8145837e-12,1.2246201e-13
321.25000,1.0863802e-11,1.3033704e-13
321.26000,1.2253285e-11,1.4061616e-13
321.27000,1.3706577e-11,1.5092458e-13
321.28000,1.4913286e-11,1.5903128e-13
321.29000,1.5694255e-11,1.6430266e-13
321.30000,1.6021705e-11,1.6684132e-13
321.31000,1.5923217e-11,1.6630700e-13
321.32000,1.5391344e-11,1.6237609e-13
321.33000,1.4331194e-11,1.5477342e-13
321.34000,1.2717145e-11,1.4315021e-13
321.35000,1.0867572e-11,1.2930946e-13
321.36000,9.3884719e-12,1.1770777e-13
321.37000,8.8662723e-12,1.1319538e-13
321.38000,9.5351391e-12,1.1783628e-13
321.39000,1.1106233e-11,1.2928343e-13
321.40000,1.2836435e-11,1.4173083e-13
321.41000,1.3888934e-11,1.4969164e-13
321.42000,1.3895626e-11,1.5071788e-13
321.43000,1.2905476e-11,1.4378181e-13
321.44000,1.1545593e-11,1.3332679e-13
321.45000,1.0576946e-11,1.2576103e-13
321.46000,1.0420080e-11,1.2412516e-13
321.47000,1.1033029e-11,1.2804093e-13
321.48000,1.1982377e-11,1.3456911e-13
321.49000,1.2774483e-11,1.4008783e-13
321.50000,1.3255487e-11,1.4331900e-13
321.51000,1.3655500e-11,1.4596170e-13
321.52000,1.4164604e-11,1.4960303e-13
321.53000,1.4718990e-11,1.5353502e-13
321.54000,1.5173741e-11,1.5636789e-13
321.55000,1.5428789e-11,1.5760179e-13
321.56000,1.5522637e-11,1.5793824e-13
321.57000,1.5674763e-11,1.5894517e-13
321.58000,1.6026909e-11,1.6153705e-13
321.59000,1.6459617e-11,1.6488755e-13
321.60000,1.6641784e-11,1.6652746e-13
321.61000,1.6330641e-11,1.6458841e-13
321.62000,1.5731780e-11,1.6062338e-13
321.63000,1.5362027e-11,1.5850189e-13
321.64000,1.5695129e-11,1.6113141e-13
321.65000,1.6669280e-11,1.6777912e-13
321.66000,1.7685376e-11,1.7457130e-13
321.67000,1.8057459e-11,1.7701519e-13
321.68000,1.7408304e-11,1.7247505e-13
321.69000,1.5790192e-11,1.6111965e-13
321.70000,1.3576629e-11,1.4558180e-13
321.71000,1.1290981e-11,1.2944934e-13
321.72000,9.3876663e-12,1.1576935e-13
321.73000,8.2098318e-12,1.0719448e-13
321.74000,7.9127743e-12,1.0514237e-13
321.75000,8.3354100e-12,1.0838134e-13
321.76000,9.2979431e-12,1.1551360e-13
321.77000,1.0746486e-11,1.2615694e-13
321.78000,1.2458068e-11,1.3869157e-13
321.79000,1.4149140e-11,1.5089086e-13
321.80000,1.5579800e-11,1.6093162e-13
321.81000,1.6632340e-11,1.6840243e-13
321.82000,1.7229186e-11,1.7295071e-13
321.83000,1.7273548e-11,1.7352254e-13
321.84000,1.6864411e-11,1.7079321e-13
321.85000,1.6347309e-11,1.6744729e-13
321.86000,1.6109093e-11,1.6610080e-13
321.87000,1.6345782e-11,1.6781981e-13
321.88000,1.7129294e-11,1.7329237e-13
321.89000,1.8383256e-11,1.8208012e-13
321.90000,1.9756201e-11,1.9125236e-13
321.91000,2.0731927e-11,1.9734698e-13
321.92000,2.1032467e-11,1.9905368e-13
321.93000,2.0761051e-11,1.9715069e-13
321.94000,2.0204568e-11,1.9327953e-13
321.95000,1.9589819e-11,1.8910348e-13
321.96000,1.8933979e-11,1.8447043e-13
321.97000,1.8100170e-11,1.7845528e-13
321.98000,1.6843471e-11,1.6922582e-13
321.99000,1.5307966e-11,1.5825053e-13
322.00000,1.3983405e-11,1.4915812e-13
322.01000,1.3464515e-11,1.4495497e-13
322.02000,1.4072293e-11,1.4929766e-13
322.03000,1.5691788e-11,1.6137057e-13
322.04000,1.7738023e-11,1.7442200e-13
322.05000,1.9427700e-11,1.8393904e-13
322.06000,2.0367518e-11,1.9011707e-13
322.07000,2.0567933e-11,1.9280499e-13
322.08000,2.0260617e-11,1.9108243e-13
322.09000,1.9886146e-11,1.8727201e-13
322.10000,1.9804065e-11,1.8509726e-13
322.11000,2.0067668e-11,1.8540036e-13
322.12000,2.0431455e-11,1.8673936e-13
322.13000,2.0560996e-11,1.8694499e-13
322.14000,2.0335781e-11,1.8480018e-13
322.15000,1.9795610e-11,1.8062443e-13
322.16000,1.9017397e-11,1.7550815e-13
322.17000,1.8096654e-11,1.7029072e-13
322.18000,1.7100500e-11,1.6537066e-13
322.19000,1.6094306e-11,1.6083046e-13
322.20000,1.5008730e-11,1.5506637e-13
322.21000,1.3756105e-11,1.4607647e-13
322.22000,1.2527601e-11,1.3603298e-13
322.23000,1.1719314e-11,1.2990893e-13
322.24000,1.1739576e-11,1.3077269e-13
322.25000,1.2693262e-11,1.3745013e-13
322.26000,1.4277876e-11,1.4789309e-13
322.27000,1.5983000e-11,1.6022475e-13
322.28000,1.7140790e-11,1.6880100e-13
322.29000,1.7119712e-11,1.6875202e-13
322.30000,1.5904901e-11,1.6089435e-13
322.31000,1.4170144e-11,1.4893105e-13
322.32000,1.2803180e-11,1.3916287e-13
322.33000,1.2340303e-11,1.3585621e-13
322.34000,1.2777329e-11,1.3896562e-13
322.35000,1.3764579e-11,1.4582649e-13
322.36000,1.4836933e-11,1.5316963e-13
322.37000,1.5642778e-11,1.5863148e-13
322.38000,1.6213663e-11,1.6251152e-13
322.39000,1.6799283e-11,1.6674441e-13
322.40000,1.7598738e-11,1.7264841e-13
322.41000,1.8547343e-11,1.7945823e-13
322.42000,1.9233899e-11,1.8430128e-13
322.43000,1.9283566e-11,1.8477774e-13
322.44000,1.8669074e-11,1.8044093e-13
322.45000,1.7748798e-11,1.7364163e-13
322.46000,1.7065823e-11,1.6867506e-13
322.47000,1.6916780e-11,1.6779081e-13
322.48000,1.7225439e-11,1.7011736e-13
322.49000,1.7642042e-11,1.7317322e-13
322.50000,1.7717987e-11,1.7383613e-13
322.51000,1.7102984e-11,1.6944648e-13
322.52000,1.5999546e-11,1.6164369e-13
322.53000,1.5091187e-11,1.5533239e-13
322.54000,1.4808019e-11,1.5325509e-13
322.55000,1.5074351e-11,1.5503084e-13
322.56000,1.5527251e-11,1.5837393e-13
322.57000,1.5707469e-11,1.5999406e-13
322.58000,1.5283313e-11,1.5727624e-13
322.59000,1.4179830e-11,1.4964456e-13
322.60000,1.2683565e-11,1.3916384e-13
322.61000,1.1313237e-11,1.2940710e-13
322.62000,1.0592851e-11,1.2426372e-13
322.63000,1.0788497e-11,1.2555369e-13
322.64000,1.1946936e-11,1.3353490e-13
322.65000,1.3716781e-11,1.4597098e-13
322.66000,1.5578878e-11,1.5916440e-13
322.67000,1.6969864e-11,1.6899337e-13
322.68000,1.7489359e-11,1.7255352e-13
322.69000,1.7038368e-11,1.6920710e-13
322.70000,1.5789823e-11,1.6039314e-13
322.71000,1.4148290e-11,1.4908006e-13
322.72000,1.2670714e-11,1.3903577e-13
322.73000,1.1957400e-11,1.3445010e-13
322.74000,1.2316789e-11,1.3747049e-13
322.75000,1.3540969e-11,1.4632494e-13
322.76000,1.4975978e-11,1.5630497e-13
322.77000,1.5819496e-11,1.6217803e-13
322.78000,1.5549343e-11,1.6044530e-13
322.79000,1.4073274e-11,1.5002864e-13
322.80000,1.1857363e-11,1.3392700e-13
322.81000,9.7163263e-12,1.1826533e-13
322.82000,8.3011323e-12,1.0793517e-13
322.83000,7.8655411e-12,1.0490600e-13
322.84000,8.3311464e-12,1.0864259e-13
322.85000,9.3536876e-12,1.1627466e-13
322.86000,1.0482302e-11,1.2421602e-13
322.87000,1.1330817e-11,1.2985916e-13
322.88000,1.1733253e-11,1.3242861e-13
322.89000,1.1760217e-11,1.3256400e-13
322.90000,1.1565435e-11,1.3139426e-13
322.91000,1.1332104e-11,1.3000150e-13
322.92000,1.1089767e-11,1.2849053e-13
322.93000,1.0738710e-11,1.2602240e-13
322.94000,1.0143422e-11,1.2146163e-13
322.95000,9.2559129e-12,1.1457739e-13
322.96000,8.3397795e-12,1.0734869e-13
322.97000,7.9030268e-12,1.0376019e-13
322.98000,8.2400988e-12,1.0609907e-13
322.99000,9.1887822e-12,1.1307493e-13
323.00000,1.0267001e-11,1.2124741e-13
323.01000,1.0942477e-11,1.2635114e-13
323.02000,1.0980111e-11,1.2623907e-13
323.03000,1.0642662e-11,1.2341403e-13
323.04000,1.0479049e-11,1.2231918e-13
323.05000,1.0945893e-11,1.2563617e-13
323.06000,1.2123411e-11,1.3342169e-13
323.07000,1.3651471e-11,1.4349958e-13
323.08000,1.5013017e-11,1.5286998e-13
323.09000,1.5786644e-11,1.5875698e-13
323.10000,1.5846632e-11,1.5928722e-13
323.11000,1.5377833e-11,1.5556282e-13
323.12000,1.4798083e-11,1.5131691e-13
323.13000,1.4400219e-11,1.4865052e-13
323.14000,1.4135968e-11,1.4710003e-13
323.15000,1.3924427e-11,1.4628859e-13
323.16000,1.3734087e-11,1.4560640e-13
323.17000,1.3573103e-11,1.4438980e-13
323.18000,1.3506618e-11,1.4299238e-13
323.19000,1.3579645e-11,1.4230715e-13
323.20000,1.3945267e-11,1.4382576e-13
323.21000,1.4568860e-11,1.4742865e-13
323.22000,1.5179030e-11,1.5122428e-13
323.23000,1.5517411e-11,1.5334476e-13
323.24000,1.5493207e-11,1.5320629e-13
323.25000,1.5220553e-11,1.5182747e-13
323.26000,1.4999957e-11,1.5117706e-13
323.27000,1.5161194e-11,1.5312189e-13
323.28000,1.5627819e-11,1.5712995e-13
323.29000,1.5955870e-11,1.5962388e-13
323.30000,1.5700238e-11,1.5680647e-13
323.31000,1.4607737e-11,1.4780008e-13
323.32000,1.2904344e-11,1.3542823e-13
323.33000,1.1379947e-11,1.2501061e-13
323.34000,1.0938462e-11,1.2221520e-13
323.35000,1.1905061e-11,1.2935918e-13
323.36000,1.3831711e-11,1.4268228e-13
323.37000,1.5855697e-11,1.5557621e-13
323.38000,1.7211377e-11,1.6383203e-13
323.39000,1.7602490e-11,1.6621018e-13
323.40000,1.7080862e-11,1.6291950e-13
323.41000,1.5888640e-11,1.5482906e-13
323.42000,1.4404904e-11,1.4454517e-13
323.43000,1.3037563e-11,1.3542125e-13
323.44000,1.2036929e-11,1.2881102e-13
323.45000,1.1365102e-11,1.2403240e-13
323.46000,1.0701012e-11,1.1924302e-13
323.47000,9.8084908e-12,1.1276842e-13
323.48000,8.7639875e-12,1.0500725e-13
323.49000,7.9150913e-12,9.8820362e-14
323.50000,7.7697867e-12,9.7680355e-14
323.51000,8.6240911e-12,1.0354304e-13
323.52000,1.0322851e-11,1.1523667e-13
323.53000,1.2399893e-11,1.2915358e-13
323.54000,1.4383808e-11,1.4215923e-13
323.55000,1.5973217e-11,1.5232943e-13
323.56000,1.7081142e-11,1.5941720e-13
323.57000,1.7770853e-11,1.6362461e-13
323.58000,1.8006616e-11,1.6468485e-13
323.59000,1.7820490e-11,1.6320370e-13
323.60000,1.7464094e-11,1.6091263e-13
323.61000,1.7063968e-11,1.5813775e-13
323.62000,1.6436872e-11,1.5365327e-13
323.63000,1.5386186e-11,1.4654154e-13
323.64000,1.3908915e-11,1.3689017e-13
323.65000,1.2231088e-11,1.2586773e-13
323.66000,1.0657304e-11,1.1522729e-13
323.67000,9.3122029e-12,1.0587321e-13
323.68000,8.2929181e-12,9.8610331e-14
323.69000,7.8055609e-12,9.5020751e-14
323.70000,8.0092885e-12,9.6168367e-14
323.71000,8.9741434e-12,1.0265269e-13
323.72000,1.0664311e-11,1.1429644e-13
323.73000,1.2753433e-11,1.2856307e-13
323.74000,1.4628577e-11,1.4125607e-13
323.75000,1.5830191e-11,1.4949441e-13
323.76000,1.6313637e-11,1.5284954e-13
323.77000,1.6349157e-11,1.5296644e-13
323.78000,1.6262101e-11,1.5202766e-13
323.79000,1.6099505e-11,1.5038637e-13
323.80000,1.5754209e-11,1.4755602e-13
323.81000,1.5271986e-11,1.4415031e-13
323.82000,1.4898372e-11,1.4183110e-13
323.83000,1.4917947e-11,1.4210744e-13
323.84000,1.5538531e-11,1.4610885e-13
323.85000,1.6698588e-11,1.5350166e-13
323.86000,1.8030927e-11,1.6207092e-13
323.87000,1.8999329e-11,1.6824753e-13
323.88000,1.9191397e-11,1.6923549e-13
323.89000,1.8494034e-11,1.6462285e-13
323.90000,1.7014097e-11,1.5537813e-13
323.91000,1.4982083e-11,1.4258765e-13
323.92000,1.2697780e-11,1.2788804e-13
323.93000,1.0566858e-11,1.1399633e-13
323.94000,9.0418482e-12,1.0391321e-13
323.95000,8.3431653e-12,9.9157796e-14
323.96000,8.3186535e-12,9.9025301e-14
323.97000,8.6517473e-12,1.0143660e-13
323.98000,9.1407485e-12,1.0475840e-13
323.99000,9.8080039e-12,1.0912579e-13
324.00000,1.0802199e-11,1.1582015e-13
324.01000,1.2242907e-11,1.2556190e-13
324.02000,1.4048704e-11,1.3736489e-13
324.03000,1.5941372e-11,1.4940393e-13
324.04000,1.7564292e-11,1.5980965e-13
324.05000,1.8626100e-11,1.6665668e-13
324.06000,1.9036010e-11,1.6914902e-13
324.07000,1.8869542e-11,1.6807974e-13
324.08000,1.8320453e-11,1.6465458e-13
324.09000,1.7666844e-11,1.6034014e-13
324.10000,1.7118289e-11,1.5656822e-13
324.11000,1.6837580e-11,1.5451422e-13
324.12000,1.6907198e-11,1.5470828e-13
324.13000,1.7244665e-11,1.5651510e-13
324.14000,1.7706996e-11,1.5906129e-13
324.15000,1.8173304e-11,1.6165742e-13
324.16000,1.8541198e-11,1.6352228e-13
324.17000,1.8691447e-11,1.6412213e-13
324.18000,1.8502552e-11,1.6308687e-13
324.19000,1.7819139e-11,1.5903065e-13
324.20000,1.6525145e-11,1.5062747e-13
324.21000,1.4691430e-11,1.3859823e-13
324.22000,1.2629022e-11,1.2528452e-13
324.23000,1.0812149e-11,1.1345331e-13
324.24000,9.7649008e-12,1.0652767e-13
324.25000,9.8786084e-12,1.0729202e-13
324.26000,1.1177933e-11,1.1570366e-13
324.27000,1.3299236e-11,1.2880028e-13
324.28000,1.5677432e-11,1.4329575e-13
324.29000,1.7739525e-11,1.5517406e-13
324.30000,1.9067471e-11,1.6272814e-13
324.31000,1.9428961e-11,1.6516015e-13
324.32000,1.8829588e-11,1.6100536e-13
324.33000,1.7630262e-11,1.5345661e-13
324.34000,1.6426883e-11,1.4715706e-13
324.35000,1.5687375e-11,1.4306915e-13
324.36000,1.5552185e-11,1.4116653e-13
324.37000,1.5805616e-11,1.4176131e-13
324.38000,1.6029990e-11,1.4337410e-13
324.39000,1.5884712e-11,1.4370773e-13
324.40000,1.5318547e-11,1.4168830e-13
324.41000,1.4698354e-11,1.3887019e-13
324.42000,1.4365017e-11,1.3712066e-13
324.43000,1.4309838e-11,1.3666464e-13
324.44000,1.4478159e-11,1.3778106e-13
324.45000,1.4894489e-11,1.4075655e-13
324.46000,1.5550344e-11,1.4484023e-13
324.47000,1.6446984e-11,1.4936952e-13
324.48000,1.7585631e-11,1.5468489e-13
324.49000,1.8849148e-11,1.6074271e-13
324.50000,1.9950116e-11,1.6645411e-13
324.51000,2.0574391e-11,1.7070280e-13
324.52000,2.0662869e-11,1.7281066e-13
324.53000,2.0389899e-11,1.7171257e-13
324.54000,1.9832812e-11,1.6749400e-13
324.55000,1.9060092e-11,1.6290673e-13
324.56000,1.8288801e-11,1.5926096e-13
324.57000,1.7758503e-11,1.5628812e-13
324.58000,1.7628266e-11,1.5580810e-13
324.59000,1.7894630e-11,1.5814113e-13
324.60000,1.8265432e-11,1.6069527e-13
324.61000,1.8371619e-11,1.6172761e-13
324.62000,1.8103262e-11,1.6038639e-13
324.63000,1.7757679e-11,1.5830841e-13
324.64000,1.7685661e-11,1.5747515e-13
324.65000,1.7960577e-11,1.5879384e-13
324.66000,1.8448008e-11,1.6176567e-13
324.67000,1.8977970e-11,1.6511192e-13
324.68000,1.9431132e-11,1.6796011e-13
324.69000,1.9624016e-11,1.6929628e-13
324.70000,1.9435716e-11,1.6834545e-13
324.71000,1.8849539e-11,1.6495305e-13
324.72000,1.7816089e-11,1.5882981e-13
324.73000,1.6318313e-11,1.4969472e-13
324.74000,1.4351471e-11,1.3746656e-13
324.75000,1.2263760e-11,1.2425908e-13
324.76000,1.0505370e-11,1.1290997e-13
324.77000,9.4826805e-12,1.0637521e-13
324.78000,9.5077964e-12,1.0693216e-13
324.79000,1.0682754e-11,1.1495283e-13
324.80000,1.2772974e-11,1.2854952e-13
324.81000,1.5201926e-11,1.4406268e-13
324.82000,1.7255337e-11,1.5701893e-13
324.83000,1.8373787e-11,1.6394504e-13
324.84000,1.8338269e-11,1.6370740e-13
324.85000,1.7257781e-11,1.5712986e-13
324.86000,1.5426969e-11,1.4578494e-13
324.87000,1.3279311e-11,1.3209434e-13
324.88000,1.1282452e-11,1.1915707e-13
324.89000,9.9349310e-12,1.1039005e-13
324.90000,9.6808040e-12,1.0886742e-13
324.91000,1.0606362e-11,1.1531137e-13
324.92000,1.2342015e-11,1.2699959e-13
324.93000,1.4168983e-11,1.3868552e-13
324.94000,1.5292241e-11,1.4555973e-13
324.95000,1.5317973e-11,1.4583478e-13
324.96000,1.4500641e-11,1.4099450e-13
324.97000,1.3456054e-11,1.3454674e-13
324.98000,1.2750680e-11,1.3004230e-13
324.99000,1.2703625e-11,1.2976199e-13
325.00000,1.3284351e-11,1.3369871e-13
325.01000,1.4297141e-11,1.4042444e-13
325.02000,1.5529813e-11,1.4845392e-13
325.03000,1.6686937e-11,1.5604374e-13
325.04000,1.7469259e-11,1.6092884e-13
325.05000,1.7619842e-11,1.6132279e-13
325.06000,1.7049700e-11,1.5730807e-13
325.07000,1.5936484e-11,1.5033011e-13
325.08000,1.4590038e-11,1.4196933e-13
325.09000,1.3400691e-11,1.3436909e-13
325.10000,1.2805481e-11,1.3047967e-13
325.11000,1.3064086e-11,1.3209556e-13
325.12000,1.3983359e-11,1.3801667e-13
325.13000,1.5019589e-11,1.4456667e-13
325.14000,1.5651424e-11,1.4812230e-13
325.15000,1.5720965e-11,1.4805751e-13
325.16000,1.5529253e-11,1.4671737e-13
325.17000,1.5481705e-11,1.4646203e-13
325.18000,1.5751725e-11,1.4818845e-13
325.19000,1.6117738e-11,1.5055720e-13
325.20000,1.6055623e-11,1.5016379e-13
325.21000,1.5316283e-11,1.4535155e-13
325.22000,1.4316967e-11,1.3869979e-13
325.23000,1.3797204e-11,1.3515814e-13
325.24000,1.4107815e-11,1.3709318e-13
