wave,flux,fluxerr
320.00000,4.2138618e-11,5.0342111e-13
320.01000,4.1296509e-11,4.9240183e-13
320.02000,4.0583154e-11,4.8014922e-13
320.03000,4.0292697e-11,4.7180973e-13
320.04000,4.0554889e-11,4.7063597e-13
320.05000,4.1300076e-11,4.7715515e-13
320.06000,4.2438302e-11,4.9086999e-13
320.07000,4.3645038e-11,5.0394680e-13
320.08000,4.4910881e-11,5.1184274e-13
320.09000,4.6355708e-11,5.2136995e-13
320.10000,4.7743818e-11,5.3462205e-13
320.11000,4.8762994e-11,5.4329460e-13
320.12000,4.9286656e-11,5.4654417e-13
320.13000,4.9505628e-11,5.4933934e-13
320.14000,4.9800245e-11,5.5172256e-13
320.15000,5.0234784e-11,5.5483056e-13
320.16000,5.0681309e-11,5.5677930e-13
320.17000,5.0945442e-11,5.5775219e-13
320.18000,5.0877634e-11,5.5807393e-13
320.19000,5.0405931e-11,5.5544376e-13
320.20000,4.9100140e-11,5.4612967e-13
320.21000,4.6699566e-11,5.2848548e-13
320.22000,4.3936634e-11,5.0720696e-13
320.23000,4.1757494e-11,4.8916281e-13
320.24000,4.0584348e-11,4.7867031e-13
320.25000,4.0292300e-11,4.7540894e-13
320.26000,4.0796230e-11,4.7887356e-13
320.27000,4.1927834e-11,4.8803956e-13
320.28000,4.3069126e-11,4.9764482e-13
320.29000,4.3653587e-11,5.0223175e-13
320.30000,4.3663778e-11,5.0148040e-13
320.31000,4.3378440e-11,4.9802819e-13
320.32000,4.3093727e-11,4.9495039e-13
320.33000,4.2879690e-11,4.9322479e-13
320.34000,4.2839989e-11,4.9360817e-13
320.35000,4.3216194e-11,4.9708896e-13
320.36000,4.4059656e-11,5.0349550e-13
320.37000,4.5462255e-11,5.1386295e-13
320.38000,4.7401619e-11,5.2816867e-13
320.39000,4.9575239e-11,5.4424100e-13
320.40000,5.1361619e-11,5.5817829e-13
320.41000,5.2490263e-11,5.6791371e-13
320.42000,5.3209782e-11,5.7370198e-13
320.43000,5.3623194e-11,5.7581817e-13
320.44000,5.3714237e-11,5.7551660e-13
320.45000,5.3556186e-11,5.7419672e-13
320.46000,5.3125948e-11,5.7198990e-13
320.47000,5.2332026e-11,5.6759914e-13
320.48000,5.1186976e-11,5.6076058e-13
320.49000,4.9664186e-11,5.5011030e-13
320.50000,4.7774349e-11,5.3543168e-13
320.51000,4.6097393e-11,5.2083227e-13
320.52000,4.5172177e-11,5.1143131e-13
320.53000,4.4863364e-11,5.0820266e-13
320.54000,4.4869700e-11,5.0914465e-13
320.55000,4.5129584e-11,5.1257335e-13
320.56000,4.5577805e-11,5.1669606e-13
320.57000,4.6179177e-11,5.2171288e-13
320.58000,4.7109377e-11,5.2928377e-13
320.59000,4.8359037e-11,5.3865540e-13
320.60000,4.9501448e-11,5.4697423e-13
320.61000,5.0209752e-11,5.5285612e-13
320.62000,5.0693041e-11,5.5802276e-13
320.63000,5.1159048e-11,5.6302922e-13
320.64000,5.1513890e-11,5.6598358e-13
320.65000,5.1732082e-11,5.6692448e-13
320.66000,5.1604043e-11,5.6540844e-13
320.67000,5.1140270e-11,5.6218001e-13
320.68000,5.0681195e-11,5.5908092e-13
320.69000,5.0351459e-11,5.5722566e-13
320.70000,5.0311902e-11,5.5805606e-13
320.71000,5.0503427e-11,5.6020070e-13
320.72000,5.0680632e-11,5.6209839e-13
320.73000,5.0915361e-11,5.6415040e-13
320.74000,5.1250851e-11,5.6646490e-13
320.75000,5.1700260e-11,5.6917975e-13
320.76000,5.2178924e-11,5.7295062e-13
320.77000,5.2490376e-11,5.7514388e-13
320.78000,5.2288478e-11,5.7305301e-13
320.79000,5.1324623e-11,5.6518643e-13
320.80000,4.9716236e-11,5.5175391e-13
320.81000,4.7413553e-11,5.3420839e-13
320.82000,4.4627860e-11,5.1250439e-13
320.83000,4.2219068e-11,4.9206019e-13
320.84000,4.0783242e-11,4.8025825e-13
320.85000,4.0191873e-11,4.7569707e-13
320.86000,3.9945882e-11,4.7224582e-13
320.87000,3.9433240e-11,4.6667853e-13
320.88000,3.8518097e-11,4.5982219e-13
320.89000,3.7656812e-11,4.5334090e-13
320.90000,3.7346255e-11,4.4901682e-13
320.91000,3.7736692e-11,4.5048190e-13
320.92000,3.8642390e-11,4.5789944e-13
320.93000,3.9713003e-11,4.6788541e-13
320.94000,4.0967714e-11,4.7838234e-13
320.95000,4.2465727e-11,4.8758456e-13
320.96000,4.4125538e-11,4.9769272e-13
320.97000,4.5692425e-11,5.0934622e-13
320.98000,4.6381600e-11,5.1439024e-13
320.99000,4.5479710e-11,5.0664051e-13
321.00000,4.3143394e-11,4.8878068e-13
321.01000,4.0127300e-11,4.6664837e-13
321.02000,3.7451657e-11,4.4736559e-13
321.03000,3.5543235e-11,4.3361297e-13
321.04000,3.4392257e-11,4.2494547e-13
321.05000,3.4005021e-11,4.2144450e-13
321.06000,3.4539621e-11,4.2441339e-13
321.07000,3.6104037e-11,4.3459083e-13
321.08000,3.8487075e-11,4.5069012e-13
321.09000,4.1138419e-11,4.6901181e-13
321.10000,4.3280459e-11,4.8408766e-13
321.11000,4.4233322e-11,4.9194863e-13
321.12000,4.3914043e-11,4.9119317e-13
321.13000,4.2938502e-11,4.8376851e-13
321.14000,4.1693400e-11,4.7384074e-13
321.15000,3.9832754e-11,4.6105184e-13
321.16000,3.7289286e-11,4.4244348e-13
321.17000,3.4973022e-11,4.2233665e-13
321.18000,3.3728606e-11,4.1008940e-13
321.19000,3.3622846e-11,4.0937789e-13
321.20000,3.4621380e-11,4.2009463e-13
321.21000,3.6325284e-11,4.3564810e-13
321.22000,3.8338390e-11,4.5017464e-13
321.23000,4.0591211e-11,4.6629500e-13
321.24000,4.2875721e-11,4.8383136e-13
321.25000,4.4564502e-11,4.9549680e-13
321.26000,4.5265262e-11,4.9888524e-13
321.27000,4.4755518e-11,4.9547479e-13
321.28000,4.2928655e-11,4.8239753e-13
321.29000,4.0128900e-11,4.6005980e-13
321.30000,3.7214639e-11,4.3699818e-13
321.31000,3.4970235e-11,4.1926190e-13
321.32000,3.3736956e-11,4.0969409e-13
321.33000,3.3598455e-11,4.0925687e-13
321.34000,3.4512707e-11,4.1609080e-13
321.35000,3.5866076e-11,4.2632499e-13
321.36000,3.6859523e-11,4.3416433e-13
321.37000,3.7302869e-11,4.3735949e-13
321.38000,3.7479073e-11,4.3699076e-13
321.39000,3.7437975e-11,4.3447945e-13
321.40000,3.7123135e-11,4.3057045e-13
321.41000,3.6800752e-11,4.2738315e-13
321.42000,3.6588531e-11,4.2550172e-13
321.43000,3.6213070e-11,4.2367509e-13
321.44000,3.5855098e-11,4.2410425e-13
321.45000,3.6359826e-11,4.3029999e-13
321.46000,3.7916232e-11,4.3954521e-13
321.47000,3.9603227e-11,4.4807421e-13
321.48000,4.0892133e-11,4.5475910e-13
321.49000,4.1975997e-11,4.6039572e-13
321.50000,4.2909037e-11,4.6626810e-13
321.51000,4.3848877e-11,4.7329805e-13
321.52000,4.5121384e-11,4.8222138e-13
321.53000,4.6510499e-11,4.9175536e-13
321.54000,4.7176681e-11,4.9613116e-13
321.55000,4.6672082e-11,4.9155138e-13
321.56000,4.5756376e-11,4.8339432e-13
321.57000,4.5363790e-11,4.7894260e-13
321.58000,4.5424505e-11,4.7852742e-13
321.59000,4.5729147e-11,4.8115430e-13
321.60000,4.6050371e-11,4.8465335e-13
321.61000,4.5960130e-11,4.8507424e-13
321.62000,4.5283931e-11,4.8071592e-13
321.63000,4.4247170e-11,4.7350220e-13
321.64000,4.3003430e-11,4.6470434e-13
321.65000,4.1121808e-11,4.5128362e-13
321.66000,3.8157746e-11,4.3060954e-13
321.67000,3.4564050e-11,4.0523121e-13
321.68000,3.1341948e-11,3.8138372e-13
321.69000,2.9017581e-11,3.6329663e-13
321.70000,2.7650855e-11,3.5248397e-13
321.71000,2.7598563e-11,3.5171432e-13
321.72000,2.9029194e-11,3.6222878e-13
321.73000,3.1328551e-11,3.8029440e-13
321.74000,3.3856126e-11,4.0086141e-13
321.75000,3.6673313e-11,4.2315325e-13
321.76000,3.9674427e-11,4.4613527e-13
321.77000,4.2075774e-11,4.6392172e-13
321.78000,4.3339776e-11,4.7259283e-13
321.79000,4.3682634e-11,4.7426491e-13
321.80000,4.3840688e-11,4.7476814e-13
321.81000,4.4034648e-11,4.7600427e-13
321.82000,4.4348712e-11,4.7841297e-13
321.83000,4.5093629e-11,4.8431477e-13
321.84000,4.6167224e-11,4.9303931e-13
321.85000,4.7273104e-11,5.0161982e-13
321.86000,4.8389867e-11,5.0910075e-13
321.87000,4.9493559e-11,5.1633832e-13
321.88000,5.0530052e-11,5.2427035e-13
321.89000,5.1346386e-11,5.3115278e-13
321.90000,5.1444396e-11,5.3247355e-13
321.91000,5.0510866e-11,5.2637079e-13
321.92000,4.8631860e-11,5.1350122e-13
321.93000,4.6239525e-11,4.9606718e-13
321.94000,4.3970844e-11,4.7910635e-13
321.95000,4.2358687e-11,4.6719217e-13
321.96000,4.1668981e-11,4.6208664e-13
321.97000,4.1726384e-11,4.6227408e-13
321.98000,4.2384772e-11,4.6664491e-13
321.99000,4.3699898e-11,4.7514212e-13
322.00000,4.5487910e-11,4.8608612e-13
322.01000,4.7358897e-11,4.9774743e-13
322.02000,4.9149907e-11,5.0948715e-13
322.03000,5.0674005e-11,5.1935711e-13
322.04000,5.1586815e-11,5.2510231e-13
322.05000,5.1916978e-11,5.2774611e-13
322.06000,5.2007757e-11,5.2865857e-13
322.07000,5.1914245e-11,5.2707059e-13
322.08000,5.1680425e-11,5.2326604e-13
322.09000,5.1316565e-11,5.1875106e-13
322.10000,5.0897300e-11,5.1575140e-13
322.11000,5.0327499e-11,5.1075358e-13
322.12000,4.9294556e-11,5.0458365e-13
322.13000,4.7994091e-11,4.9628130e-13
322.14000,4.6646242e-11,4.8308798e-13
322.15000,4.4914386e-11,4.6895914e-13
322.16000,4.2699320e-11,4.5582736e-13
322.17000,4.0667509e-11,4.4145810e-13
322.18000,3.9526588e-11,4.2904572e-13
322.19000,3.9225091e-11,4.2417238e-13
322.20000,3.9469896e-11,4.2744523e-13
322.21000,4.0293414e-11,4.3667652e-13
322.22000,4.1551996e-11,4.4914708e-13
322.23000,4.2303401e-11,4.5751200e-13
322.24000,4.2033443e-11,4.5702989e-13
322.25000,4.1151817e-11,4.5040891e-13
322.26000,4.0382375e-11,4.4339741e-13
322.27000,4.0009287e-11,4.3832956e-13
322.28000,3.9780649e-11,4.3406724e-13
322.29000,3.9736509e-11,4.3226795e-13
322.30000,4.0270667e-11,4.3699981e-13
322.31000,4.1387305e-11,4.4865366e-13
322.32000,4.2952329e-11,4.6460635e-13
322.33000,4.5019519e-11,4.8029627e-13
322.34000,4.7355439e-11,4.9190110e-13
322.35000,4.9257629e-11,5.0181852e-13
322.36000,5.0175658e-11,5.1004758e-13
322.37000,4.9981653e-11,5.0999277e-13
322.38000,4.8840799e-11,5.0172570e-13
322.39000,4.7280406e-11,4.9231746e-13
322.40000,4.6032121e-11,4.8431655e-13
322.41000,4.5248754e-11,4.7920370e-13
322.42000,4.4808005e-11,4.7718621e-13
322.43000,4.4810187e-11,4.7815394e-13
322.44000,4.5101523e-11,4.8115170e-13
322.45000,4.5268920e-11,4.8282584e-13
322.46000,4.5246396e-11,4.8250783e-13
322.47000,4.5511551e-11,4.8348086e-13
322.48000,4.6157321e-11,4.8704350e-13
322.49000,4.6545505e-11,4.8946215e-13
322.50000,4.6347173e-11,4.8816012e-13
322.51000,4.5882956e-11,4.8478202e-13
322.52000,4.5306655e-11,4.8079145e-13
322.53000,4.4186535e-11,4.7329631e-13
322.54000,4.2494413e-11,4.6115536e-13
322.55000,4.1023866e-11,4.4964960e-13
322.56000,4.0152649e-11,4.4260576e-13
322.57000,3.9602303e-11,4.3860821e-13
322.58000,3.9433935e-11,4.3797419e-13
322.59000,4.0048583e-11,4.4324304e-13
322.60000,4.1333089e-11,4.5315576e-13
322.61000,4.2862586e-11,4.6404195e-13
322.62000,4.4260832e-11,4.7364652e-13
322.63000,4.5094407e-11,4.7988540e-13
322.64000,4.5119485e-11,4.8026580e-13
322.65000,4.4415855e-11,4.7461892e-13
322.66000,4.3171834e-11,4.6509028e-13
322.67000,4.1876528e-11,4.5572285e-13
322.68000,4.1141550e-11,4.5097959e-13
322.69000,4.1128424e-11,4.5197043e-13
322.70000,4.1457554e-11,4.5517938e-13
322.71000,4.1795063e-11,4.5753564e-13
322.72000,4.1861377e-11,4.5684272e-13
322.73000,4.1137118e-11,4.5127019e-13
322.74000,3.9412097e-11,4.3971567e-13
322.75000,3.7181624e-11,4.2427373e-13
322.76000,3.4925478e-11,4.0842197e-13
322.77000,3.2883372e-11,3.9405949e-13
322.78000,3.1308720e-11,3.8333418e-13
322.79000,3.0556215e-11,3.7855972e-13
322.80000,3.0770046e-11,3.8042344e-13
322.81000,3.1501654e-11,3.8581985e-13
322.82000,3.2294529e-11,3.9137978e-13
322.83000,3.3172675e-11,3.9675311e-13
322.84000,3.4055708e-11,4.0218976e-13
322.85000,3.4675866e-11,4.0711864e-13
322.86000,3.4752380e-11,4.0890678e-13
322.87000,3.4112880e-11,4.0490541e-13
322.88000,3.2766940e-11,3.9464697e-13
322.89000,3.0995367e-11,3.8030588e-13
322.90000,2.9262668e-11,3.6641015e-13
322.91000,2.8072309e-11,3.5732930e-13
322.92000,2.7913798e-11,3.5641568e-13
322.93000,2.8507808e-11,3.6129890e-13
322.94000,2.9351189e-11,3.6811351e-13
322.95000,3.0324021e-11,3.7546628e-13
322.96000,3.1587781e-11,3.8408526e-13
322.97000,3.3127206e-11,3.9430649e-13
322.98000,3.4731388e-11,4.0513672e-13
322.99000,3.6318100e-11,4.1607989e-13
323.00000,3.7916548e-11,4.2729015e-13
323.01000,3.9393207e-11,4.3774597e-13
323.02000,4.0594490e-11,4.4593456e-13
323.03000,4.1715298e-11,4.5356496e-13
323.04000,4.2933833e-11,4.6169355e-13
323.05000,4.3857353e-11,4.6779533e-13
323.06000,4.4195143e-11,4.6947695e-13
323.07000,4.4111673e-11,4.6879195e-13
323.08000,4.3545198e-11,4.6439864e-13
323.09000,4.2395097e-11,4.5450988e-13
323.10000,4.1248509e-11,4.4568783e-13
323.11000,4.0515900e-11,4.4069863e-13
323.12000,3.9824604e-11,4.3621959e-13
323.13000,3.9124030e-11,4.3240956e-13
323.14000,3.8934708e-11,4.3118125e-13
323.15000,3.9538915e-11,4.3433127e-13
323.16000,4.0552604e-11,4.4169121e-13
323.17000,4.1371365e-11,4.4828324e-13
323.18000,4.1574680e-11,4.4868751e-13
323.19000,4.1265416e-11,4.4500870e-13
323.20000,4.0933492e-11,4.4287242e-13
323.21000,4.0978505e-11,4.4409032e-13
323.22000,4.1343253e-11,4.4509181e-13
323.23000,4.1469733e-11,4.4290814e-13
323.24000,4.0922166e-11,4.3696070e-13
323.25000,3.9599162e-11,4.2713515e-13
323.26000,3.7934506e-11,4.1736000e-13
323.27000,3.6852565e-11,4.1337804e-13
323.28000,3.6808752e-11,4.1477702e-13
323.29000,3.7406222e-11,4.1732455e-13
323.30000,3.8184482e-11,4.2010862e-13
323.31000,3.9237778e-11,4.2542935e-13
323.32000,4.0834953e-11,4.3481819e-13
323.33000,4.2751040e-11,4.4656269e-13
323.34000,4.4560159e-11,4.5841566e-13
323.35000,4.5531845e-11,4.6497577e-13
323.36000,4.5118254e-11,4.6193766e-13
323.37000,4.3759796e-11,4.5257922e-13
323.38000,4.2178546e-11,4.4153408e-13
323.39000,4.0290819e-11,4.2803619e-13
323.40000,3.7740730e-11,4.1028701e-13
323.41000,3.4790455e-11,3.9062966e-13
323.42000,3.1872398e-11,3.7114939e-13
323.43000,2.9522914e-11,3.5358651e-13
323.44000,2.8291003e-11,3.4218374e-13
323.45000,2.8235850e-11,3.4007884e-13
323.46000,2.9252297e-11,3.4728816e-13
323.47000,3.1169712e-11,3.6128039e-13
323.48000,3.3847532e-11,3.8113690e-13
323.49000,3.7126452e-11,4.0405521e-13
323.50000,4.0791481e-11,4.2723449e-13
323.51000,4.4212196e-11,4.4872380e-13
323.52000,4.6837622e-11,4.6608325e-13
323.53000,4.8601338e-11,4.7775560e-13
323.54000,4.9662690e-11,4.8320159e-13
323.55000,5.0066746e-11,4.8470244e-13
323.56000,4.9471550e-11,4.8099573e-13
323.57000,4.7638480e-11,4.6786088e-13
323.58000,4.4988421e-11,4.4875001e-13
323.59000,4.2226451e-11,4.3035512e-13
323.60000,3.9387719e-11,4.1073048e-13
323.61000,3.6123931e-11,3.8755454e-13
323.62000,3.2646672e-11,3.6324193e-13
323.63000,2.9726631e-11,3.4205546e-13
323.64000,2.8086694e-11,3.2966319e-13
323.65000,2.8045905e-11,3.2870004e-13
323.66000,2.9553949e-11,3.3915092e-13
323.67000,3.2134615e-11,3.5697960e-13
323.68000,3.5068087e-11,3.7656469e-13
323.69000,3.7899878e-11,3.9504962e-13
323.70000,4.0500861e-11,4.1199909e-13
323.71000,4.2900304e-11,4.2720529e-13
323.72000,4.4886814e-11,4.3918336e-13
323.73000,4.5846690e-11,4.4502696e-13
323.74000,4.5485899e-11,4.4317780e-13
323.75000,4.4386992e-11,4.3660278e-13
323.76000,4.3419584e-11,4.3103286e-13
323.77000,4.2962488e-11,4.2923572e-13
323.78000,4.3182257e-11,4.3181053e-13
323.79000,4.4065340e-11,4.3758543e-13
323.80000,4.5337147e-11,4.4456982e-13
323.81000,4.6503434e-11,4.5056243e-13
323.82000,4.7407682e-11,4.5483604e-13
323.83000,4.7968344e-11,4.5754234e-13
323.84000,4.7672654e-11,4.5609713e-13
323.85000,4.6011398e-11,4.4645555e-13
323.86000,4.2981492e-11,4.2692015e-13
323.87000,3.9197581e-11,4.0163482e-13
323.88000,3.5699827e-11,3.7864351e-13
323.89000,3.3104955e-11,3.6184748e-13
323.90000,3.1131341e-11,3.4841661e-13
323.91000,2.9574075e-11,3.3673368e-13
323.92000,2.8587073e-11,3.2913129e-13
323.93000,2.8484276e-11,3.2876129e-13
323.94000,2.9496194e-11,3.3659646e-13
323.95000,3.1648504e-11,3.5223617e-13
323.96000,3.4416878e-11,3.7206672e-13
323.97000,3.7246854e-11,3.9144614e-13
323.98000,4.0067226e-11,4.0960575e-13
323.99000,4.2914364e-11,4.2791747e-13
324.00000,4.5533320e-11,4.4504901e-13
324.01000,4.7702899e-11,4.5847453e-13
324.02000,4.9288505e-11,4.6776165e-13
324.03000,5.0094964e-11,4.7311448e-13
324.04000,5.0294510e-11,4.7530375e-13
324.05000,5.0069365e-11,4.7441280e-13
324.06000,4.9403051e-11,4.7025269e-13
324.07000,4.8645764e-11,4.6520259e-13
324.08000,4.8383133e-11,4.6319819e-13
324.09000,4.8602170e-11,4.6424951e-13
324.10000,4.9001874e-11,4.6686388e-13
324.11000,4.9385627e-11,4.6990162e-13
324.12000,4.9672636e-11,4.7164730e-13
324.13000,4.9536694e-11,4.6938760e-13
324.14000,4.8627373e-11,4.6210193e-13
324.15000,4.6694319e-11,4.4909001e-13
324.16000,4.3608981e-11,4.2856964e-13
324.17000,3.9965626e-11,4.0387048e-13
324.18000,3.6738618e-11,3.8188154e-13
324.19000,3.4356940e-11,3.6559373e-13
324.20000,3.3153664e-11,3.5770069e-13
324.21000,3.3440632e-11,3.6023784e-13
324.22000,3.5023515e-11,3.7079186e-13
324.23000,3.7566304e-11,3.8645706e-13
324.24000,4.0665468e-11,4.0514905e-13
324.25000,4.3550782e-11,4.2256305e-13
324.26000,4.5353117e-11,4.3354518e-13
324.27000,4.6011158e-11,4.3786831e-13
324.28000,4.6218787e-11,4.3927736e-13
324.29000,4.6109256e-11,4.3779430e-13
324.30000,4.5545859e-11,4.3266552e-13
324.31000,4.4848129e-11,4.2679556e-13
324.32000,4.4203891e-11,4.2181585e-13
324.33000,4.3419863e-11,4.1609077e-13
324.34000,4.2681726e-11,4.1098617e-13
324.35000,4.2446228e-11,4.0954631e-13
324.36000,4.2749779e-11,4.1156185e-13
324.37000,4.2828329e-11,4.1140840e-13
324.38000,4.2308101e-11,4.0818559e-13
324.39000,4.1864618e-11,4.0571844e-13
324.40000,4.2096991e-11,4.0724894e-13
324.41000,4.2842377e-11,4.1231568e-13
324.42000,4.3976527e-11,4.1787022e-13
324.43000,4.5643552e-11,4.2773610e-13
324.44000,4.7452404e-11,4.4036776e-13
324.45000,4.8759343e-11,4.4701037e-13
324.46000,4.9712703e-11,4.5038123e-13
324.47000,5.0709204e-11,4.5791365e-13
324.48000,5.1449185e-11,4.6807606e-13
324.49000,5.1648070e-11,4.7388094e-13
324.50000,5.1376233e-11,4.7046029e-13
324.51000,5.0921240e-11,4.6253095e-13
324.52000,5.0606963e-11,4.5673627e-13
324.53000,5.0449338e-11,4.5353140e-13
324.54000,5.0245237e-11,4.5115504e-13
324.55000,4.9756273e-11,4.4835509e-13
324.56000,4.8902984e-11,4.4485112e-13
324.57000,4.8087145e-11,4.4281516e-13
324.58000,4.7750058e-11,4.4477772e-13
324.59000,4.7657930e-11,4.4899446e-13
324.60000,4.7562239e-11,4.5050117e-13
324.61000,4.7655620e-11,4.4838259e-13
324.62000,4.7957337e-11,4.4721318e-13
324.63000,4.8322554e-11,4.5049697e-13
324.64000,4.8617825e-11,4.5590857e-13
324.65000,4.8766182e-11,4.5723145e-13
324.66000,4.8462870e-11,4.5298443e-13
324.67000,4.7198469e-11,4.4521408e-13
324.68000,4.4860532e-11,4.3147845e-13
324.69000,4.1997764e-11,4.1370108e-13
324.70000,3.9234349e-11,3.9711006e-13
324.71000,3.6594228e-11,3.8019643e-13
324.72000,3.4289000e-11,3.6555153e-13
324.73000,3.3167617e-11,3.5860603e-13
324.74000,3.3644714e-11,3.6148483e-13
324.75000,3.5284384e-11,3.7226024e-13
324.76000,3.7554924e-11,3.8775299e-13
324.77000,3.9963205e-11,4.0381524e-13
324.78000,4.1843862e-11,4.1603511e-13
324.79000,4.2892768e-11,4.2340229e-13
324.80000,4.2976655e-11,4.2489972e-13
324.81000,4.1719628e-11,4.1763326e-13
324.82000,3.9120525e-11,4.0138205e-13
324.83000,3.5921598e-11,3.8065208e-13
324.84000,3.3412887e-11,3.6403301e-13
324.85000,3.2315106e-11,3.5658260e-13
324.86000,3.2556596e-11,3.5833775e-13
324.87000,3.3737318e-11,3.6657361e-13
324.88000,3.5425717e-11,3.7785529e-13
324.89000,3.7202718e-11,3.8931908e-13
324.90000,3.8698523e-11,3.9897920e-13
324.91000,3.9841231e-11,4.0694083e-13
324.92000,4.0656518e-11,4.1294627e-13
324.93000,4.0998417e-11,4.1531858e-13
324.94000,4.0988332e-11,4.1523857e-13
324.95000,4.1056064e-11,4.1590443e-13
324.96000,4.1516120e-11,4.1914324e-13
324.97000,4.2499720e-11,4.2565550e-13
324.98000,4.3885835e-11,4.3508629e-13
324.99000,4.5327759e-11,4.4495457e-13
325.00000,4.6413024e-11,4.5270920e-13
325.01000,4.6880021e-11,4.5695245e-13
325.02000,4.6593832e-11,4.5578205e-13
325.03000,4.5594984e-11,4.4938094e-13
325.04000,4.4458983e-11,4.4252955e-13
325.05000,4.3707343e-11,4.3875677e-13
325.06000,4.3300930e-11,4.3688832e-13
325.07000,4.2976986e-11,4.3315512e-13
325.08000,4.2635015e-11,4.2786038e-13
325.09000,4.2459504e-11,4.2502564e-13
325.10000,4.2638999e-11,4.2592938e-13
325.11000,4.3136656e-11,4.2936094e-13
325.12000,4.3800861e-11,4.3360640e-13
325.13000,4.4301171e-11,4.3667541e-13
325.14000,4.3898323e-11,4.3392922e-13
325.15000,4.2344618e-11,4.2363345e-13
325.16000,4.0605964e-11,4.1179982e-13
325.17000,3.9669264e-11,4.0486015e-13
325.18000,3.9533186e-11,4.0357259e-13
325.19000,3.9732092e-11,4.0508655e-13
325.20000,4.0021130e-11,4.0711038e-13
325.21000,4.0560013e-11,4.1046308e-13
325.22000,4.1408180e-11,4.1554608e-13
325.23000,4.2315762e-11,4.2077154e-13
325.24000,4.2757662e-11,4.2281782e-13
