wave,flux,fluxerr
320.00000,8.5724552e-12,1.9652761e-13
320.01000,8.5794082e-12,1.9761244e-13
320.02000,8.5851842e-12,1.9656415e-13
320.03000,8.5897414e-12,1.9559150e-13
320.04000,8.5870912e-12,1.9627522e-13
320.05000,8.5780494e-12,1.9654667e-13
320.06000,8.5697489e-12,1.9643805e-13
320.07000,8.5751896e-12,1.9740714e-13
320.08000,8.5897284e-12,1.9810095e-13
320.09000,8.6018953e-12,1.9874882e-13
320.10000,8.6112008e-12,1.9928526e-13
320.11000,8.6072323e-12,1.9937109e-13
320.12000,8.5792453e-12,1.9901604e-13
320.13000,8.5393343e-12,1.9861214e-13
320.14000,8.5131058e-12,1.9840808e-13
320.15000,8.5022557e-12,1.9786938e-13
320.16000,8.4894443e-12,1.9708467e-13
320.17000,8.4597450e-12,1.9647782e-13
320.18000,8.4286695e-12,1.9626837e-13
320.19000,8.3888854e-12,1.9597274e-13
320.20000,8.3317782e-12,1.9521650e-13
320.21000,8.2705058e-12,1.9411031e-13
320.22000,8.2061323e-12,1.9250725e-13
320.23000,8.1383259e-12,1.9052778e-13
320.24000,8.0501017e-12,1.8842343e-13
320.25000,7.9359057e-12,1.8632561e-13
320.26000,7.7981759e-12,1.8424177e-13
320.27000,7.6505984e-12,1.8220417e-13
320.28000,7.4974678e-12,1.7973132e-13
320.29000,7.3417883e-12,1.7672077e-13
320.30000,7.1997859e-12,1.7400394e-13
320.31000,7.0778109e-12,1.7188141e-13
320.32000,6.9899650e-12,1.7036568e-13
320.33000,6.9490242e-12,1.6965672e-13
320.34000,6.9448176e-12,1.6959679e-13
320.35000,6.9495864e-12,1.6974711e-13
320.36000,6.9697693e-12,1.7010819e-13
320.37000,7.0317165e-12,1.7105595e-13
320.38000,7.1487320e-12,1.7310146e-13
320.39000,7.3049286e-12,1.7617353e-13
320.40000,7.4639391e-12,1.7938739e-13
320.41000,7.6299085e-12,1.8245178e-13
320.42000,7.8012132e-12,1.8513369e-13
320.43000,7.9601712e-12,1.8744389e-13
320.44000,8.1004898e-12,1.8971362e-13
320.45000,8.2059350e-12,1.9156550e-13
320.46000,8.2744172e-12,1.9332824e-13
320.47000,8.3224731e-12,1.9527665e-13
320.48000,8.3711216e-12,1.9680334e-13
320.49000,8.4219610e-12,1.9740334e-13
320.50000,8.4599434e-12,1.9705857e-13
320.51000,8.4904389e-12,1.9660280e-13
320.52000,8.5115918e-12,1.9687496e-13
320.53000,8.5111762e-12,1.9735249e-13
320.54000,8.5094503e-12,1.9769299e-13
320.55000,8.5264171e-12,1.9831760e-13
320.56000,8.5307194e-12,1.9889531e-13
320.57000,8.5138232e-12,1.9861136e-13
320.58000,8.5207381e-12,1.9825498e-13
320.59000,8.5565434e-12,1.9864526e-13
320.60000,8.5785182e-12,1.9952078e-13
320.61000,8.5782210e-12,2.0036580e-13
320.62000,8.5933513e-12,2.0120004e-13
320.63000,8.6141193e-12,2.0168327e-13
320.64000,8.6125258e-12,2.0147669e-13
320.65000,8.6105297e-12,2.0125906e-13
320.66000,8.6253947e-12,2.0145604e-13
320.67000,8.6350482e-12,2.0157247e-13
320.68000,8.6309944e-12,2.0194154e-13
320.69000,8.6290495e-12,2.0249853e-13
320.70000,8.6404513e-12,2.0303687e-13
320.71000,8.6480940e-12,2.0319570e-13
320.72000,8.6424805e-12,2.0325068e-13
320.73000,8.6458907e-12,2.0365739e-13
320.74000,8.6633980e-12,2.0374429e-13
320.75000,8.6777748e-12,2.0364123e-13
320.76000,8.6781047e-12,2.0361574e-13
320.77000,8.6704647e-12,2.0338003e-13
320.78000,8.6716488e-12,2.0313971e-13
320.79000,8.6662161e-12,2.0305602e-13
320.80000,8.6533150e-12,2.0281260e-13
320.81000,8.6550985e-12,2.0222129e-13
320.82000,8.6710604e-12,2.0177480e-13
320.83000,8.6873060e-12,2.0188026e-13
320.84000,8.7025261e-12,2.0243308e-13
320.85000,8.7062894e-12,2.0210438e-13
320.86000,8.6818520e-12,2.0042529e-13
320.87000,8.6562387e-12,1.9925843e-13
320.88000,8.6444178e-12,1.9886232e-13
320.89000,8.6266582e-12,1.9854447e-13
320.90000,8.6128397e-12,1.9875025e-13
320.91000,8.6211464e-12,1.9960140e-13
320.92000,8.6239476e-12,1.9996355e-13
320.93000,8.6108400e-12,1.9920708e-13
320.94000,8.6124101e-12,1.9823234e-13
320.95000,8.6219218e-12,1.9744136e-13
320.96000,8.6191743e-12,1.9683033e-13
320.97000,8.6120306e-12,1.9661287e-13
320.98000,8.6007880e-12,1.9639282e-13
320.99000,8.6057896e-12,1.9640772e-13
321.00000,8.6336764e-12,1.9713838e-13
321.01000,8.6462828e-12,1.9816772e-13
321.02000,8.6348791e-12,1.9913798e-13
321.03000,8.6323204e-12,1.9981426e-13
321.04000,8.6477208e-12,1.9959214e-13
321.05000,8.6555097e-12,1.9821176e-13
321.06000,8.6657976e-12,1.9670525e-13
321.07000,8.6854547e-12,1.9596908e-13
321.08000,8.6931533e-12,1.9582705e-13
321.09000,8.6832112e-12,1.9599784e-13
321.10000,8.6675319e-12,1.9675802e-13
321.11000,8.6590800e-12,1.9718836e-13
321.12000,8.6583500e-12,1.9630592e-13
321.13000,8.6725209e-12,1.9577969e-13
321.14000,8.6889111e-12,1.9591800e-13
321.15000,8.6922891e-12,1.9604741e-13
321.16000,8.6923153e-12,1.9552841e-13
321.17000,8.6912083e-12,1.9488084e-13
321.18000,8.6879651e-12,1.9499249e-13
321.19000,8.6912934e-12,1.9526236e-13
321.20000,8.6884806e-12,1.9511730e-13
321.21000,8.6870051e-12,1.9558598e-13
321.22000,8.7102119e-12,1.9634190e-13
321.23000,8.7314046e-12,1.9612327e-13
321.24000,8.7336776e-12,1.9579837e-13
321.25000,8.7203697e-12,1.9557198e-13
321.26000,8.6987902e-12,1.9517800e-13
321.27000,8.6800516e-12,1.9464440e-13
321.28000,8.6848380e-12,1.9429439e-13
321.29000,8.7172599e-12,1.9455480e-13
321.30000,8.7372928e-12,1.9441779e-13
321.31000,8.7232155e-12,1.9387721e-13
321.32000,8.7086987e-12,1.9375120e-13
321.33000,8.7113826e-12,1.9416490e-13
321.34000,8.7093642e-12,1.9414227e-13
321.35000,8.6825875e-12,1.9348668e-13
321.36000,8.6486005e-12,1.9279854e-13
321.37000,8.6286393e-12,1.9215602e-13
321.38000,8.6249692e-12,1.9226341e-13
321.39000,8.6207895e-12,1.9439143e-13
321.40000,8.6070703e-12,1.9715191e-13
321.41000,8.5864942e-12,1.9833438e-13
321.42000,8.5639234e-12,1.9876112e-13
321.43000,8.5311816e-12,2.0040091e-13
321.44000,8.4997469e-12,2.0137934e-13
321.45000,8.5133935e-12,1.9910770e-13
321.46000,8.5463268e-12,1.9642943e-13
321.47000,8.5578426e-12,1.9455981e-13
321.48000,8.5628494e-12,1.9330910e-13
321.49000,8.5783708e-12,1.9279767e-13
321.50000,8.6005312e-12,1.9277872e-13
321.51000,8.6381917e-12,1.9326110e-13
321.52000,8.6910423e-12,1.9396691e-13
321.53000,8.7259380e-12,1.9410598e-13
321.54000,8.7172329e-12,1.9354924e-13
321.55000,8.6974292e-12,1.9290401e-13
321.56000,8.7011018e-12,1.9223982e-13
321.57000,8.7223583e-12,1.9167803e-13
321.58000,8.7489922e-12,1.9176377e-13
321.59000,8.7663958e-12,1.9225371e-13
321.60000,8.7737960e-12,1.9269893e-13
321.61000,8.7854694e-12,1.9303236e-13
321.62000,8.7877825e-12,1.9313949e-13
321.63000,8.7735970e-12,1.9291004e-13
321.64000,8.7669885e-12,1.9258976e-13
321.65000,8.7835255e-12,1.9259773e-13
321.66000,8.8016202e-12,1.9296574e-13
321.67000,8.8015733e-12,1.9309737e-13
321.68000,8.7906526e-12,1.9273304e-13
321.69000,8.7944240e-12,1.9257149e-13
321.70000,8.8044760e-12,1.9267936e-13
321.71000,8.7955808e-12,1.9250841e-13
321.72000,8.7833643e-12,1.9250870e-13
321.73000,8.7790725e-12,1.9281744e-13
321.74000,8.7718026e-12,1.9296373e-13
321.75000,8.7618169e-12,1.9277380e-13
321.76000,8.7410358e-12,1.9222254e-13
321.77000,8.6935024e-12,1.9123565e-13
321.78000,8.6457103e-12,1.9019796e-13
321.79000,8.6154358e-12,1.8941606e-13
321.80000,8.5793473e-12,1.8887097e-13
321.81000,8.5409088e-12,1.8847088e-13
321.82000,8.5086545e-12,1.8790297e-13
321.83000,8.4791830e-12,1.8727339e-13
321.84000,8.4362755e-12,1.8653931e-13
321.85000,8.3809460e-12,1.8540937e-13
321.86000,8.3450095e-12,1.8448885e-13
321.87000,8.3517114e-12,1.8459997e-13
321.88000,8.4078375e-12,1.8581596e-13
321.89000,8.4780372e-12,1.8722189e-13
321.90000,8.5218988e-12,1.8813049e-13
321.91000,8.5477912e-12,1.8871737e-13
321.92000,8.5836868e-12,1.8916059e-13
321.93000,8.6060578e-12,1.8896153e-13
321.94000,8.5986518e-12,1.8827018e-13
321.95000,8.5963000e-12,1.8805340e-13
321.96000,8.6139864e-12,1.8815130e-13
321.97000,8.6414767e-12,1.8818156e-13
321.98000,8.6679993e-12,1.8810611e-13
321.99000,8.6763371e-12,1.8789923e-13
322.00000,8.6657537e-12,1.8736131e-13
322.01000,8.6581195e-12,1.8692247e-13
322.02000,8.6640916e-12,1.8687671e-13
322.03000,8.6773623e-12,1.8675217e-13
322.04000,8.6857834e-12,1.8710461e-13
322.05000,8.6776737e-12,1.8677459e-13
322.06000,8.6619165e-12,1.8635227e-13
322.07000,8.6629049e-12,1.8647745e-13
322.08000,8.6641497e-12,1.8511864e-13
322.09000,8.6471376e-12,1.8345389e-13
322.10000,8.6176564e-12,1.8400031e-13
322.11000,8.6152283e-12,1.8591290e-13
322.12000,8.6424324e-12,1.8607375e-13
322.13000,8.6613199e-12,1.8410472e-13
322.14000,8.6645160e-12,1.8190032e-13
322.15000,8.6679993e-12,1.8063792e-13
322.16000,8.6751476e-12,1.8026429e-13
322.17000,8.6925603e-12,1.8059227e-13
322.18000,8.7154531e-12,1.8146018e-13
322.19000,8.7070365e-12,1.8210787e-13
322.20000,8.6798623e-12,1.8210944e-13
322.21000,8.6641886e-12,1.8188652e-13
322.22000,8.6524650e-12,1.8194843e-13
322.23000,8.6522285e-12,1.8272114e-13
322.24000,8.6585338e-12,1.8411637e-13
322.25000,8.6572101e-12,1.8554432e-13
322.26000,8.6625612e-12,1.8592394e-13
322.27000,8.6728844e-12,1.8477616e-13
322.28000,8.6737480e-12,1.8446318e-13
322.29000,8.6779668e-12,1.8599035e-13
322.30000,8.6881701e-12,1.8708894e-13
322.31000,8.6906563e-12,1.8679804e-13
322.32000,8.6820594e-12,1.8685701e-13
322.33000,8.6770723e-12,1.8666692e-13
322.34000,8.6903787e-12,1.8595221e-13
322.35000,8.7165933e-12,1.8618315e-13
322.36000,8.7327455e-12,1.8678200e-13
322.37000,8.7239080e-12,1.8713716e-13
322.38000,8.7221554e-12,1.8727668e-13
322.39000,8.7361358e-12,1.8760421e-13
322.40000,8.7388960e-12,1.8792784e-13
322.41000,8.7367115e-12,1.8818974e-13
322.42000,8.7514570e-12,1.8868749e-13
322.43000,8.7565345e-12,1.8908768e-13
322.44000,8.7252336e-12,1.8874383e-13
322.45000,8.6952294e-12,1.8813497e-13
322.46000,8.6926074e-12,1.8776011e-13
322.47000,8.7007962e-12,1.8753980e-13
322.48000,8.6915307e-12,1.8734484e-13
322.49000,8.6698842e-12,1.8739218e-13
322.50000,8.6568118e-12,1.8757789e-13
322.51000,8.6502012e-12,1.8742971e-13
322.52000,8.6248044e-12,1.8676448e-13
322.53000,8.5937461e-12,1.8604989e-13
322.54000,8.5846413e-12,1.8559024e-13
322.55000,8.5817965e-12,1.8519713e-13
322.56000,8.5746033e-12,1.8494385e-13
322.57000,8.5768735e-12,1.8507690e-13
322.58000,8.5988072e-12,1.8577183e-13
322.59000,8.6251849e-12,1.8654334e-13
322.60000,8.6389891e-12,1.8669606e-13
322.61000,8.6436312e-12,1.8655729e-13
322.62000,8.6363151e-12,1.8663958e-13
322.63000,8.6210843e-12,1.8649856e-13
322.64000,8.6036417e-12,1.8586658e-13
322.65000,8.5921093e-12,1.8552237e-13
322.66000,8.5920686e-12,1.8563224e-13
322.67000,8.5913748e-12,1.8568656e-13
322.68000,8.5883486e-12,1.8589705e-13
322.69000,8.5883029e-12,1.8617954e-13
322.70000,8.5857459e-12,1.8608838e-13
322.71000,8.5964035e-12,1.8609965e-13
322.72000,8.6213728e-12,1.8640724e-13
322.73000,8.6213749e-12,1.8642076e-13
322.74000,8.5931681e-12,1.8625596e-13
322.75000,8.5758096e-12,1.8646136e-13
322.76000,8.5906963e-12,1.8704955e-13
322.77000,8.6038964e-12,1.8757509e-13
322.78000,8.5953560e-12,1.8785549e-13
322.79000,8.5881179e-12,1.8796876e-13
322.80000,8.5979508e-12,1.8807577e-13
322.81000,8.6062185e-12,1.8807771e-13
322.82000,8.6105576e-12,1.8797616e-13
322.83000,8.6162185e-12,1.8808445e-13
322.84000,8.6155046e-12,1.8831099e-13
322.85000,8.5902754e-12,1.8803662e-13
322.86000,8.5614471e-12,1.8758884e-13
322.87000,8.5703679e-12,1.8776478e-13
322.88000,8.5955683e-12,1.8796106e-13
322.89000,8.6089895e-12,1.8763531e-13
322.90000,8.6067735e-12,1.8716748e-13
322.91000,8.5854730e-12,1.8712915e-13
322.92000,8.5364798e-12,1.8687228e-13
322.93000,8.4492187e-12,1.8562644e-13
322.94000,8.3583084e-12,1.8412466e-13
322.95000,8.3417260e-12,1.8384682e-13
322.96000,8.3769495e-12,1.8409812e-13
322.97000,8.3898915e-12,1.8375305e-13
322.98000,8.3753583e-12,1.8285944e-13
322.99000,8.3507143e-12,1.8213167e-13
323.00000,8.3247760e-12,1.8182359e-13
323.01000,8.3056974e-12,1.8147475e-13
323.02000,8.2843137e-12,1.8103089e-13
323.03000,8.2734525e-12,1.8065883e-13
323.04000,8.2896095e-12,1.8088797e-13
323.05000,8.3107002e-12,1.8143562e-13
323.06000,8.3232382e-12,1.8132048e-13
323.07000,8.3492535e-12,1.8115422e-13
323.08000,8.4012405e-12,1.8199394e-13
323.09000,8.4618675e-12,1.8295185e-13
323.10000,8.5020564e-12,1.8290198e-13
323.11000,8.5212023e-12,1.8299930e-13
323.12000,8.5399634e-12,1.8432420e-13
323.13000,8.5600360e-12,1.8545371e-13
323.14000,8.5727184e-12,1.8483156e-13
323.15000,8.5855152e-12,1.8399384e-13
323.16000,8.5915497e-12,1.8392637e-13
323.17000,8.5840807e-12,1.8400353e-13
323.18000,8.5766557e-12,1.8452211e-13
323.19000,8.5826259e-12,1.8494205e-13
323.20000,8.5832344e-12,1.8404866e-13
323.21000,8.5641514e-12,1.8219135e-13
323.22000,8.5357900e-12,1.8049394e-13
323.23000,8.4967246e-12,1.7952289e-13
323.24000,8.4636432e-12,1.7941166e-13
323.25000,8.4486527e-12,1.7935307e-13
323.26000,8.4398798e-12,1.7898073e-13
323.27000,8.4376767e-12,1.7898246e-13
323.28000,8.4388159e-12,1.7930425e-13
323.29000,8.4262173e-12,1.7919005e-13
323.30000,8.4158838e-12,1.7889782e-13
323.31000,8.4342310e-12,1.7882205e-13
323.32000,8.4517094e-12,1.7849853e-13
323.33000,8.4399156e-12,1.7763113e-13
323.34000,8.4271676e-12,1.7711288e-13
323.35000,8.4380238e-12,1.7795051e-13
323.36000,8.4662882e-12,1.7979803e-13
323.37000,8.4976713e-12,1.8067604e-13
323.38000,8.5083016e-12,1.7943136e-13
323.39000,8.5051604e-12,1.7779062e-13
323.40000,8.4992708e-12,1.7700024e-13
323.41000,8.4894409e-12,1.7669717e-13
323.42000,8.4963204e-12,1.7713211e-13
323.43000,8.5324393e-12,1.7793861e-13
323.44000,8.5815403e-12,1.7843139e-13
323.45000,8.6214575e-12,1.7883987e-13
323.46000,8.6485315e-12,1.7928656e-13
323.47000,8.6634799e-12,1.7924673e-13
323.48000,8.6677972e-12,1.7861391e-13
323.49000,8.6612098e-12,1.7823926e-13
323.50000,8.6469266e-12,1.7803501e-13
323.51000,8.6500810e-12,1.7768667e-13
323.52000,8.6769353e-12,1.7776440e-13
323.53000,8.6962935e-12,1.7772861e-13
323.54000,8.6928736e-12,1.7720451e-13
323.55000,8.6840518e-12,1.7702471e-13
323.56000,8.6700041e-12,1.7661186e-13
323.57000,8.6539536e-12,1.7597986e-13
323.58000,8.6625303e-12,1.7573372e-13
323.59000,8.6773787e-12,1.7581936e-13
323.60000,8.6811885e-12,1.7686673e-13
323.61000,8.6942248e-12,1.7974450e-13
323.62000,8.7095123e-12,1.8290138e-13
323.63000,8.7109177e-12,1.8395879e-13
323.64000,8.7025287e-12,1.8356173e-13
323.65000,8.6966342e-12,1.8292618e-13
323.66000,8.7004844e-12,1.8254383e-13
323.67000,8.7119286e-12,1.8236848e-13
323.68000,8.7122637e-12,1.8186768e-13
323.69000,8.6995211e-12,1.8099908e-13
323.70000,8.7040241e-12,1.8049417e-13
323.71000,8.7187684e-12,1.8004349e-13
323.72000,8.7257262e-12,1.7944127e-13
323.73000,8.7169478e-12,1.7897309e-13
323.74000,8.6944338e-12,1.7867655e-13
323.75000,8.6781236e-12,1.7850317e-13
323.76000,8.6613361e-12,1.7852134e-13
323.77000,8.6420574e-12,1.7862410e-13
323.78000,8.6345735e-12,1.7831270e-13
323.79000,8.6456476e-12,1.7746424e-13
323.80000,8.6495663e-12,1.7638974e-13
323.81000,8.6183139e-12,1.7533506e-13
323.82000,8.5845943e-12,1.7471280e-13
323.83000,8.5693049e-12,1.7446342e-13
323.84000,8.5418128e-12,1.7396271e-13
323.85000,8.5033902e-12,1.7318897e-13
323.86000,8.4715637e-12,1.7254126e-13
323.87000,8.4509378e-12,1.7221607e-13
323.88000,8.4359771e-12,1.7195891e-13
323.89000,8.4172032e-12,1.7152579e-13
323.90000,8.4143865e-12,1.7111959e-13
323.91000,8.4432897e-12,1.7121114e-13
323.92000,8.4861437e-12,1.7199235e-13
323.93000,8.5293071e-12,1.7301190e-13
323.94000,8.5767737e-12,1.7381045e-13
323.95000,8.6233036e-12,1.7454756e-13
323.96000,8.6447060e-12,1.7506737e-13
323.97000,8.6586126e-12,1.7530709e-13
323.98000,8.6974839e-12,1.7555609e-13
323.99000,8.7329803e-12,1.7574515e-13
324.00000,8.7457301e-12,1.7564321e-13
324.01000,8.7517442e-12,1.7534062e-13
324.02000,8.7562374e-12,1.7508303e-13
324.03000,8.7622116e-12,1.7521915e-13
324.04000,8.7734705e-12,1.7579770e-13
324.05000,8.7645281e-12,1.7610896e-13
324.06000,8.7327743e-12,1.7558623e-13
324.07000,8.7155224e-12,1.7493572e-13
324.08000,8.7181123e-12,1.7465052e-13
324.09000,8.7194496e-12,1.7434048e-13
324.10000,8.7199786e-12,1.7392670e-13
324.11000,8.7162440e-12,1.7345017e-13
324.12000,8.7069111e-12,1.7280988e-13
324.13000,8.6908162e-12,1.7215799e-13
324.14000,8.6772405e-12,1.7193051e-13
324.15000,8.6636029e-12,1.7166597e-13
324.16000,8.6368008e-12,1.7093361e-13
324.17000,8.6191033e-12,1.7029830e-13
324.18000,8.6010078e-12,1.6975194e-13
324.19000,8.5691749e-12,1.6912653e-13
324.20000,8.5080901e-12,1.6823390e-13
324.21000,8.3782527e-12,1.6617297e-13
324.22000,8.2665424e-12,1.6394582e-13
324.23000,8.3356992e-12,1.6421057e-13
324.24000,8.4824054e-12,1.6597754e-13
324.25000,8.5677803e-12,1.6725419e-13
324.26000,8.6130724e-12,1.6799100e-13
324.27000,8.6128372e-12,1.6798764e-13
324.28000,8.5720414e-12,1.6728670e-13
324.29000,8.5481338e-12,1.6645429e-13
324.30000,8.5544291e-12,1.6581946e-13
324.31000,8.5649639e-12,1.6542748e-13
324.32000,8.5656067e-12,1.6525047e-13
324.33000,8.5549300e-12,1.6469858e-13
324.34000,8.5398750e-12,1.6470923e-13
324.35000,8.5211375e-12,1.6452956e-13
324.36000,8.5072295e-12,1.6386383e-13
324.37000,8.4924450e-12,1.6415240e-13
324.38000,8.4570469e-12,1.6403001e-13
324.39000,8.4218380e-12,1.6243458e-13
324.40000,8.3985803e-12,1.6131005e-13
324.41000,8.3648292e-12,1.6190313e-13
324.42000,8.3466280e-12,1.6320707e-13
324.43000,8.3567973e-12,1.6321204e-13
324.44000,8.3617345e-12,1.6179702e-13
324.45000,8.3461289e-12,1.6042238e-13
324.46000,8.3324019e-12,1.5966932e-13
324.47000,8.3410794e-12,1.5939426e-13
324.48000,8.3753303e-12,1.5982880e-13
324.49000,8.4162121e-12,1.6072631e-13
324.50000,8.4383403e-12,1.6137849e-13
324.51000,8.4537353e-12,1.6199236e-13
324.52000,8.4840385e-12,1.6333873e-13
324.53000,8.5133738e-12,1.6531250e-13
324.54000,8.5285806e-12,1.6669408e-13
324.55000,8.5328851e-12,1.6626364e-13
324.56000,8.5297266e-12,1.6482501e-13
324.57000,8.5477633e-12,1.6482209e-13
324.58000,8.5668574e-12,1.6631542e-13
324.59000,8.5675836e-12,1.6711765e-13
324.60000,8.5748730e-12,1.6694617e-13
324.61000,8.5803307e-12,1.6735757e-13
324.62000,8.5836703e-12,1.6801270e-13
324.63000,8.5783751e-12,1.6795428e-13
324.64000,8.5612774e-12,1.6781327e-13
324.65000,8.5614493e-12,1.6762120e-13
324.66000,8.5770790e-12,1.6765362e-13
324.67000,8.5798092e-12,1.6790691e-13
324.68000,8.5652268e-12,1.6805377e-13
324.69000,8.5465248e-12,1.6793899e-13
324.70000,8.5299667e-12,1.6752753e-13
324.71000,8.5100476e-12,1.6727985e-13
324.72000,8.4814949e-12,1.6716511e-13
324.73000,8.4520304e-12,1.6686313e-13
324.74000,8.4290427e-12,1.6648194e-13
324.75000,8.4027373e-12,1.6612365e-13
324.76000,8.3651643e-12,1.6568885e-13
324.77000,8.3349695e-12,1.6520269e-13
324.78000,8.3397516e-12,1.6515335e-13
324.79000,8.3650021e-12,1.6568608e-13
324.80000,8.3761085e-12,1.6618411e-13
324.81000,8.3809637e-12,1.6659578e-13
324.82000,8.3862088e-12,1.6717196e-13
324.83000,8.3841792e-12,1.6765675e-13
324.84000,8.3762564e-12,1.6779170e-13
324.85000,8.3697780e-12,1.6775532e-13
324.86000,8.3784400e-12,1.6782629e-13
324.87000,8.3890775e-12,1.6787311e-13
324.88000,8.4074252e-12,1.6809138e-13
324.89000,8.4292986e-12,1.6838781e-13
324.90000,8.4313533e-12,1.6828598e-13
324.91000,8.4325462e-12,1.6822248e-13
324.92000,8.4444530e-12,1.6876984e-13
324.93000,8.4605555e-12,1.6959325e-13
324.94000,8.4705164e-12,1.6989393e-13
324.95000,8.4743504e-12,1.6970684e-13
324.96000,8.4806915e-12,1.6978933e-13
324.97000,8.4877750e-12,1.7015105e-13
324.98000,8.4882488e-12,1.7037606e-13
324.99000,8.4740364e-12,1.7043414e-13
325.00000,8.4633505e-12,1.7069129e-13
325.01000,8.4557602e-12,1.7088198e-13
325.02000,8.4446512e-12,1.7058773e-13
325.03000,8.4432051e-12,1.7028039e-13
325.04000,8.4509178e-12,1.7054894e-13
325.05000,8.4481989e-12,1.7086457e-13
325.06000,8.4397410e-12,1.7041274e-13
325.07000,8.4500807e-12,1.6980307e-13
325.08000,8.4740189e-12,1.6990701e-13
325.09000,8.4869213e-12,1.7023796e-13
325.10000,8.4853671e-12,1.7032105e-13
325.11000,8.4738520e-12,1.7011153e-13
325.12000,8.4733891e-12,1.7000449e-13
325.13000,8.4834926e-12,1.7019013e-13
325.14000,8.4888618e-12,1.7038911e-13
325.15000,8.5013377e-12,1.7038208e-13
325.16000,8.5158729e-12,1.7009526e-13
325.17000,8.5174777e-12,1.6982916e-13
325.18000,8.5138566e-12,1.6983600e-13
325.19000,8.5180684e-12,1.6999321e-13
325.20000,8.5180643e-12,1.7002748e-13
325.21000,8.4943893e-12,1.6976487e-13
325.22000,8.4685026e-12,1.6948464e-13
325.23000,8.4835707e-12,1.6941716e-13
325.24000,8.5211818e-12,1.6926367e-13
