wave,flux,fluxerr
320.00000,1.1288749e-11,1.4281597e-13
320.01000,1.1311742e-11,1.4322199e-13
320.02000,1.1363305e-11,1.4329122e-13
320.03000,1.1357071e-11,1.4325690e-13
320.04000,1.1341146e-11,1.4372000e-13
320.05000,1.1342321e-11,1.4411360e-13
320.06000,1.1312435e-11,1.4403979e-13
320.07000,1.1302685e-11,1.4382977e-13
320.08000,1.1325117e-11,1.4419327e-13
320.09000,1.1266224e-11,1.4394111e-13
320.10000,1.1157827e-11,1.4307080e-13
320.11000,1.1117931e-11,1.4262150e-13
320.12000,1.1108706e-11,1.4239441e-13
320.13000,1.1061863e-11,1.4174904e-13
320.14000,1.1007651e-11,1.4113352e-13
320.15000,1.0949743e-11,1.4069981e-13
320.16000,1.0887419e-11,1.4023622e-13
320.17000,1.0805728e-11,1.3964869e-13
320.18000,1.0666108e-11,1.3859574e-13
320.19000,1.0493319e-11,1.3702621e-13
320.20000,1.0332330e-11,1.3540459e-13
320.21000,1.0196417e-11,1.3400228e-13
320.22000,1.0062100e-11,1.3256707e-13
320.23000,9.9235264e-12,1.3124513e-13
320.24000,9.8211773e-12,1.3057510e-13
320.25000,9.7077161e-12,1.2989411e-13
320.26000,9.5547073e-12,1.2866683e-13
320.27000,9.4369823e-12,1.2759912e-13
320.28000,9.3748275e-12,1.2679615e-13
320.29000,9.3043554e-12,1.2587537e-13
320.30000,9.2426213e-12,1.2530210e-13
320.31000,9.2179751e-12,1.2512027e-13
320.32000,9.2157073e-12,1.2503819e-13
320.33000,9.2645485e-12,1.2539185e-13
320.34000,9.3377061e-12,1.2584374e-13
320.35000,9.4221326e-12,1.2619560e-13
320.36000,9.5474119e-12,1.2692252e-13
320.37000,9.7206001e-12,1.2831399e-13
320.38000,9.8995357e-12,1.2981262e-13
320.39000,1.0045311e-11,1.3086659e-13
320.40000,1.0214419e-11,1.3193055e-13
320.41000,1.0424045e-11,1.3317362e-13
320.42000,1.0652909e-11,1.3475900e-13
320.43000,1.0845491e-11,1.3644212e-13
320.44000,1.0975107e-11,1.3773205e-13
320.45000,1.1095393e-11,1.3897851e-13
320.46000,1.1202951e-11,1.4005360e-13
320.47000,1.1238478e-11,1.4017139e-13
320.48000,1.1241891e-11,1.3961178e-13
320.49000,1.1292825e-11,1.3942941e-13
320.50000,1.1351860e-11,1.3969511e-13
320.51000,1.1345361e-11,1.3989410e-13
320.52000,1.1311984e-11,1.4008940e-13
320.53000,1.1331850e-11,1.4036536e-13
320.54000,1.1411082e-11,1.4080738e-13
320.55000,1.1488776e-11,1.4118953e-13
320.56000,1.1516145e-11,1.4114694e-13
320.57000,1.1522629e-11,1.4114966e-13
320.58000,1.1532844e-11,1.4159861e-13
320.59000,1.1495200e-11,1.4171506e-13
320.60000,1.1448128e-11,1.4151009e-13
320.61000,1.1455128e-11,1.4160527e-13
320.62000,1.1491725e-11,1.4197928e-13
320.63000,1.1491025e-11,1.4184923e-13
320.64000,1.1478689e-11,1.4149383e-13
320.65000,1.1492732e-11,1.4152909e-13
320.66000,1.1521206e-11,1.4174323e-13
320.67000,1.1520229e-11,1.4196617e-13
320.68000,1.1492969e-11,1.4191214e-13
320.69000,1.1508423e-11,1.4195181e-13
320.70000,1.1562815e-11,1.4257201e-13
320.71000,1.1559785e-11,1.4250058e-13
320.72000,1.1518058e-11,1.4148589e-13
320.73000,1.1538056e-11,1.4143354e-13
320.74000,1.1583935e-11,1.4234536e-13
320.75000,1.1562828e-11,1.4238912e-13
320.76000,1.1529607e-11,1.4187434e-13
320.77000,1.1565307e-11,1.4208499e-13
320.78000,1.1602183e-11,1.4253074e-13
320.79000,1.1568924e-11,1.4197912e-13
320.80000,1.1527472e-11,1.4114692e-13
320.81000,1.1552399e-11,1.4100764e-13
320.82000,1.1594127e-11,1.4118193e-13
320.83000,1.1600360e-11,1.4125560e-13
320.84000,1.1622676e-11,1.4109451e-13
320.85000,1.1669292e-11,1.4059077e-13
320.86000,1.1683567e-11,1.4000610e-13
320.87000,1.1627597e-11,1.3934464e-13
320.88000,1.1568316e-11,1.3863553e-13
320.89000,1.1561038e-11,1.3819225e-13
320.90000,1.1567270e-11,1.3795619e-13
320.91000,1.1515342e-11,1.3736923e-13
320.92000,1.1490139e-11,1.3689390e-13
320.93000,1.1530508e-11,1.3699812e-13
320.94000,1.1557175e-11,1.3726906e-13
320.95000,1.1533685e-11,1.3722062e-13
320.96000,1.1520616e-11,1.3718466e-13
320.97000,1.1568890e-11,1.3777256e-13
320.98000,1.1612760e-11,1.3836110e-13
320.99000,1.1611492e-11,1.3820455e-13
321.00000,1.1611390e-11,1.3792910e-13
321.01000,1.1662435e-11,1.3849326e-13
321.02000,1.1699204e-11,1.3943200e-13
321.03000,1.1668776e-11,1.3962123e-13
321.04000,1.1654153e-11,1.3891371e-13
321.05000,1.1682945e-11,1.3815926e-13
321.06000,1.1697551e-11,1.3780406e-13
321.07000,1.1655791e-11,1.3762646e-13
321.08000,1.1631292e-11,1.3803533e-13
321.09000,1.1671149e-11,1.3849662e-13
321.10000,1.1665826e-11,1.3787537e-13
321.11000,1.1627511e-11,1.3716282e-13
321.12000,1.1671045e-11,1.3750515e-13
321.13000,1.1740844e-11,1.3779376e-13
321.14000,1.1745952e-11,1.3732875e-13
321.15000,1.1713134e-11,1.3719101e-13
321.16000,1.1735394e-11,1.3768771e-13
321.17000,1.1793206e-11,1.3815727e-13
321.18000,1.1798042e-11,1.3851625e-13
321.19000,1.1784797e-11,1.3873315e-13
321.20000,1.1792669e-11,1.3878068e-13
321.21000,1.1737760e-11,1.3834673e-13
321.22000,1.1658633e-11,1.3752101e-13
321.23000,1.1670877e-11,1.3740856e-13
321.24000,1.1736421e-11,1.3787949e-13
321.25000,1.1745803e-11,1.3801388e-13
321.26000,1.1738134e-11,1.3799316e-13
321.27000,1.1802883e-11,1.3833249e-13
321.28000,1.1849548e-11,1.3849064e-13
321.29000,1.1816212e-11,1.3814192e-13
321.30000,1.1829204e-11,1.3828359e-13
321.31000,1.1872297e-11,1.3874272e-13
321.32000,1.1844963e-11,1.3878384e-13
321.33000,1.1792142e-11,1.3854692e-13
321.34000,1.1796245e-11,1.3839594e-13
321.35000,1.1824917e-11,1.3812608e-13
321.36000,1.1813303e-11,1.3744498e-13
321.37000,1.1768109e-11,1.3661326e-13
321.38000,1.1753017e-11,1.3622534e-13
321.39000,1.1765093e-11,1.3634132e-13
321.40000,1.1715633e-11,1.3630367e-13
321.41000,1.1666154e-11,1.3622144e-13
321.42000,1.1691394e-11,1.3648022e-13
321.43000,1.1734306e-11,1.3679094e-13
321.44000,1.1757066e-11,1.3671092e-13
321.45000,1.1791714e-11,1.3637570e-13
321.46000,1.1820900e-11,1.3596092e-13
321.47000,1.1801963e-11,1.3550509e-13
321.48000,1.1787555e-11,1.3530331e-13
321.49000,1.1827817e-11,1.3550109e-13
321.50000,1.1861383e-11,1.3563257e-13
321.51000,1.1837231e-11,1.3538197e-13
321.52000,1.1825334e-11,1.3511261e-13
321.53000,1.1844725e-11,1.3481212e-13
321.54000,1.1856816e-11,1.3452538e-13
321.55000,1.1865462e-11,1.3447345e-13
321.56000,1.1858508e-11,1.3442245e-13
321.57000,1.1850043e-11,1.3460144e-13
321.58000,1.1861546e-11,1.3511280e-13
321.59000,1.1891522e-11,1.3574133e-13
321.60000,1.1900462e-11,1.3602632e-13
321.61000,1.1874091e-11,1.3572571e-13
321.62000,1.1847612e-11,1.3535846e-13
321.63000,1.1836222e-11,1.3532993e-13
321.64000,1.1852906e-11,1.3572362e-13
321.65000,1.1872601e-11,1.3627471e-13
321.66000,1.1884131e-11,1.3667933e-13
321.67000,1.1899457e-11,1.3675153e-13
321.68000,1.1924017e-11,1.3667812e-13
321.69000,1.1960374e-11,1.3683103e-13
321.70000,1.1999758e-11,1.3726045e-13
321.71000,1.2001186e-11,1.3755214e-13
321.72000,1.1993962e-11,1.3782801e-13
321.73000,1.2001690e-11,1.3825758e-13
321.74000,1.1984907e-11,1.3845399e-13
321.75000,1.1929442e-11,1.3800698e-13
321.76000,1.1901776e-11,1.3751525e-13
321.77000,1.1942379e-11,1.3769227e-13
321.78000,1.1977850e-11,1.3793251e-13
321.79000,1.1973812e-11,1.3801478e-13
321.80000,1.1972959e-11,1.3842179e-13
321.81000,1.1974830e-11,1.3901401e-13
321.82000,1.1958146e-11,1.3933746e-13
321.83000,1.1930633e-11,1.3936144e-13
321.84000,1.1904353e-11,1.3923818e-13
321.85000,1.1870346e-11,1.3901639e-13
321.86000,1.1826119e-11,1.3905965e-13
321.87000,1.1825349e-11,1.3967005e-13
321.88000,1.1854925e-11,1.4026461e-13
321.89000,1.1842692e-11,1.4043040e-13
321.90000,1.1816359e-11,1.4048960e-13
321.91000,1.1799740e-11,1.4029402e-13
321.92000,1.1737429e-11,1.3954835e-13
321.93000,1.1620483e-11,1.3854545e-13
321.94000,1.1557865e-11,1.3821808e-13
321.95000,1.1586204e-11,1.3851593e-13
321.96000,1.1630479e-11,1.3881202e-13
321.97000,1.1624999e-11,1.3854588e-13
321.98000,1.1574481e-11,1.3804110e-13
321.99000,1.1533165e-11,1.3721743e-13
322.00000,1.1544446e-11,1.3699121e-13
322.01000,1.1592828e-11,1.3744433e-13
322.02000,1.1618407e-11,1.3701772e-13
322.03000,1.1593208e-11,1.3686934e-13
322.04000,1.1557532e-11,1.3717699e-13
322.05000,1.1519226e-11,1.3599755e-13
322.06000,1.1459313e-11,1.3421054e-13
322.07000,1.1437599e-11,1.3435068e-13
322.08000,1.1491164e-11,1.3615928e-13
322.09000,1.1555476e-11,1.3690599e-13
322.10000,1.1576375e-11,1.3565382e-13
322.11000,1.1558734e-11,1.3389508e-13
322.12000,1.1520735e-11,1.3233044e-13
322.13000,1.1508582e-11,1.3136680e-13
322.14000,1.1535553e-11,1.3114735e-13
322.15000,1.1544216e-11,1.3098779e-13
322.16000,1.1506261e-11,1.3065918e-13
322.17000,1.1464979e-11,1.3077358e-13
322.18000,1.1483639e-11,1.3179991e-13
322.19000,1.1516122e-11,1.3321692e-13
322.20000,1.1506223e-11,1.3449381e-13
322.21000,1.1520843e-11,1.3510819e-13
322.22000,1.1574516e-11,1.3425460e-13
322.23000,1.1580457e-11,1.3280019e-13
322.24000,1.1581563e-11,1.3283473e-13
322.25000,1.1601787e-11,1.3397018e-13
322.26000,1.1589603e-11,1.3405816e-13
322.27000,1.1606157e-11,1.3396622e-13
322.28000,1.1610048e-11,1.3454212e-13
322.29000,1.1545663e-11,1.3423595e-13
322.30000,1.1544345e-11,1.3380948e-13
322.31000,1.1626819e-11,1.3418750e-13
322.32000,1.1691463e-11,1.3416926e-13
322.33000,1.1706119e-11,1.3402845e-13
322.34000,1.1724005e-11,1.3424852e-13
322.35000,1.1742941e-11,1.3460946e-13
322.36000,1.1720275e-11,1.3468829e-13
322.37000,1.1682101e-11,1.3472516e-13
322.38000,1.1644914e-11,1.3464649e-13
322.39000,1.1618097e-11,1.3460095e-13
322.40000,1.1682285e-11,1.3536087e-13
322.41000,1.1761508e-11,1.3607986e-13
322.42000,1.1751711e-11,1.3590816e-13
322.43000,1.1750227e-11,1.3584505e-13
322.44000,1.1785489e-11,1.3608949e-13
322.45000,1.1771562e-11,1.3584206e-13
322.46000,1.1734581e-11,1.3548509e-13
322.47000,1.1721224e-11,1.3553547e-13
322.48000,1.1709692e-11,1.3570552e-13
322.49000,1.1687109e-11,1.3580987e-13
322.50000,1.1634400e-11,1.3561472e-13
322.51000,1.1571011e-11,1.3497295e-13
322.52000,1.1524979e-11,1.3431399e-13
322.53000,1.1459902e-11,1.3378347e-13
322.54000,1.1386357e-11,1.3324985e-13
322.55000,1.1357265e-11,1.3303329e-13
322.56000,1.1387395e-11,1.3346392e-13
322.57000,1.1417298e-11,1.3388303e-13
322.58000,1.1396528e-11,1.3373213e-13
322.59000,1.1356848e-11,1.3349860e-13
322.60000,1.1350826e-11,1.3359564e-13
322.61000,1.1365731e-11,1.3367435e-13
322.62000,1.1383832e-11,1.3378019e-13
322.63000,1.1390297e-11,1.3371547e-13
322.64000,1.1381074e-11,1.3333184e-13
322.65000,1.1394273e-11,1.3341371e-13
322.66000,1.1409340e-11,1.3382183e-13
322.67000,1.1393054e-11,1.3374899e-13
322.68000,1.1377074e-11,1.3335697e-13
322.69000,1.1366532e-11,1.3303071e-13
322.70000,1.1345622e-11,1.3269576e-13
322.71000,1.1364958e-11,1.3285197e-13
322.72000,1.1427369e-11,1.3355957e-13
322.73000,1.1455183e-11,1.3396884e-13
322.74000,1.1403631e-11,1.3377631e-13
322.75000,1.1328519e-11,1.3358197e-13
322.76000,1.1325906e-11,1.3392930e-13
322.77000,1.1394056e-11,1.3450523e-13
322.78000,1.1434194e-11,1.3448166e-13
322.79000,1.1430221e-11,1.3401017e-13
322.80000,1.1439829e-11,1.3381745e-13
322.81000,1.1484799e-11,1.3403809e-13
322.82000,1.1496451e-11,1.3410610e-13
322.83000,1.1439074e-11,1.3388810e-13
322.84000,1.1414453e-11,1.3392977e-13
322.85000,1.1463099e-11,1.3413127e-13
322.86000,1.1494199e-11,1.3392362e-13
322.87000,1.1475201e-11,1.3348617e-13
322.88000,1.1460871e-11,1.3331200e-13
322.89000,1.1383111e-11,1.3293848e-13
322.90000,1.1153242e-11,1.3162149e-13
322.91000,1.0946716e-11,1.3018101e-13
322.92000,1.0962512e-11,1.2999632e-13
322.93000,1.1102563e-11,1.3058519e-13
322.94000,1.1234826e-11,1.3096737e-13
322.95000,1.1316653e-11,1.3114646e-13
322.96000,1.1365469e-11,1.3120723e-13
322.97000,1.1407302e-11,1.3129391e-13
322.98000,1.1407251e-11,1.3116885e-13
322.99000,1.1366081e-11,1.3077920e-13
323.00000,1.1347911e-11,1.3058905e-13
323.01000,1.1394684e-11,1.3060800e-13
323.02000,1.1424609e-11,1.3032743e-13
323.03000,1.1405527e-11,1.3003944e-13
323.04000,1.1402698e-11,1.2998157e-13
323.05000,1.1452430e-11,1.2977475e-13
323.06000,1.1489842e-11,1.2945684e-13
323.07000,1.1505836e-11,1.2975910e-13
323.08000,1.1525117e-11,1.3048320e-13
323.09000,1.1522742e-11,1.3047468e-13
323.10000,1.1495128e-11,1.2984838e-13
323.11000,1.1468079e-11,1.2952151e-13
323.12000,1.1487967e-11,1.3006308e-13
323.13000,1.1541630e-11,1.3107661e-13
323.14000,1.1561177e-11,1.3115291e-13
323.15000,1.1546981e-11,1.3013685e-13
323.16000,1.1547371e-11,1.2931376e-13
323.17000,1.1553221e-11,1.2899371e-13
323.18000,1.1524784e-11,1.2864766e-13
323.19000,1.1502934e-11,1.2824328e-13
323.20000,1.1516945e-11,1.2789149e-13
323.21000,1.1529087e-11,1.2752208e-13
323.22000,1.1505647e-11,1.2710292e-13
323.23000,1.1455393e-11,1.2680786e-13
323.24000,1.1432737e-11,1.2687262e-13
323.25000,1.1478768e-11,1.2730131e-13
323.26000,1.1519219e-11,1.2758903e-13
323.27000,1.1496297e-11,1.2759658e-13
323.28000,1.1479823e-11,1.2772832e-13
323.29000,1.1496591e-11,1.2771853e-13
323.30000,1.1496235e-11,1.2720698e-13
323.31000,1.1509499e-11,1.2699355e-13
323.32000,1.1546626e-11,1.2767777e-13
323.33000,1.1568880e-11,1.2852169e-13
323.34000,1.1579091e-11,1.2850077e-13
323.35000,1.1584719e-11,1.2777889e-13
323.36000,1.1588783e-11,1.2725255e-13
323.37000,1.1590801e-11,1.2700010e-13
323.38000,1.1586879e-11,1.2694233e-13
323.39000,1.1582052e-11,1.2670801e-13
323.40000,1.1584903e-11,1.2599579e-13
323.41000,1.1597727e-11,1.2562893e-13
323.42000,1.1610143e-11,1.2600900e-13
323.43000,1.1642195e-11,1.2648737e-13
323.44000,1.1703023e-11,1.2654134e-13
323.45000,1.1748498e-11,1.2661546e-13
323.46000,1.1753322e-11,1.2667225e-13
323.47000,1.1730779e-11,1.2623836e-13
323.48000,1.1693652e-11,1.2573567e-13
323.49000,1.1680835e-11,1.2547648e-13
323.50000,1.1709847e-11,1.2532492e-13
323.51000,1.1721383e-11,1.2526161e-13
323.52000,1.1710811e-11,1.2509031e-13
323.53000,1.1752267e-11,1.2514981e-13
323.54000,1.1814971e-11,1.2535890e-13
323.55000,1.1828413e-11,1.2528722e-13
323.56000,1.1823507e-11,1.2515008e-13
323.57000,1.1848129e-11,1.2517693e-13
323.58000,1.1864465e-11,1.2520913e-13
323.59000,1.1834305e-11,1.2481703e-13
323.60000,1.1784098e-11,1.2408813e-13
323.61000,1.1793700e-11,1.2366802e-13
323.62000,1.1822261e-11,1.2361503e-13
323.63000,1.1803215e-11,1.2347698e-13
323.64000,1.1790603e-11,1.2338395e-13
323.65000,1.1818336e-11,1.2343608e-13
323.66000,1.1839439e-11,1.2337620e-13
323.67000,1.1837548e-11,1.2318390e-13
323.68000,1.1832033e-11,1.2303948e-13
323.69000,1.1828862e-11,1.2292393e-13
323.70000,1.1805385e-11,1.2265576e-13
323.71000,1.1788089e-11,1.2262731e-13
323.72000,1.1797481e-11,1.2286813e-13
323.73000,1.1826732e-11,1.2306902e-13
323.74000,1.1846137e-11,1.2322139e-13
323.75000,1.1841560e-11,1.2345973e-13
323.76000,1.1843309e-11,1.2376136e-13
323.77000,1.1811807e-11,1.2353814e-13
323.78000,1.1750321e-11,1.2282965e-13
323.79000,1.1712507e-11,1.2225857e-13
323.80000,1.1689035e-11,1.2196351e-13
323.81000,1.1642823e-11,1.2178437e-13
323.82000,1.1611696e-11,1.2173719e-13
323.83000,1.1641027e-11,1.2191132e-13
323.84000,1.1644715e-11,1.2193335e-13
323.85000,1.1599054e-11,1.2167631e-13
323.86000,1.1613190e-11,1.2177715e-13
323.87000,1.1707666e-11,1.2237544e-13
323.88000,1.1776820e-11,1.2281502e-13
323.89000,1.1782680e-11,1.2286383e-13
323.90000,1.1797831e-11,1.2310287e-13
323.91000,1.1824330e-11,1.2355847e-13
323.92000,1.1856197e-11,1.2401488e-13
323.93000,1.1899227e-11,1.2446724e-13
323.94000,1.1904794e-11,1.2461525e-13
323.95000,1.1879477e-11,1.2438931e-13
323.96000,1.1868626e-11,1.2414393e-13
323.97000,1.1877178e-11,1.2404045e-13
323.98000,1.1878161e-11,1.2391962e-13
323.99000,1.1863112e-11,1.2373959e-13
324.00000,1.1878091e-11,1.2379529e-13
324.01000,1.1932114e-11,1.2422994e-13
324.02000,1.1938134e-11,1.2468830e-13
324.03000,1.1883350e-11,1.2486586e-13
324.04000,1.1862489e-11,1.2493224e-13
324.05000,1.1891419e-11,1.2504695e-13
324.06000,1.1922759e-11,1.2515604e-13
324.07000,1.1916999e-11,1.2508021e-13
324.08000,1.1865348e-11,1.2476690e-13
324.09000,1.1802380e-11,1.2438962e-13
324.10000,1.1806062e-11,1.2444385e-13
324.11000,1.1882751e-11,1.2492335e-13
324.12000,1.1937242e-11,1.2513078e-13
324.13000,1.1911109e-11,1.2482488e-13
324.14000,1.1879651e-11,1.2448075e-13
324.15000,1.1907253e-11,1.2437627e-13
324.16000,1.1926566e-11,1.2421037e-13
324.17000,1.1916273e-11,1.2394820e-13
324.18000,1.1899485e-11,1.2367291e-13
324.19000,1.1882435e-11,1.2339741e-13
324.20000,1.1865386e-11,1.2312177e-13
324.21000,1.1848326e-11,1.2284597e-13
324.22000,1.1831257e-11,1.2257003e-13
324.23000,1.1814075e-11,1.2229425e-13
324.24000,1.1793820e-11,1.2201538e-13
324.25000,1.1757348e-11,1.2163238e-13
324.26000,1.1716043e-11,1.2111212e-13
324.27000,1.1724505e-11,1.2093602e-13
324.28000,1.1773164e-11,1.2070840e-13
324.29000,1.1782484e-11,1.2030047e-13
324.30000,1.1743428e-11,1.1980694e-13
324.31000,1.1744338e-11,1.1945804e-13
324.32000,1.1757945e-11,1.1982948e-13
324.33000,1.1725985e-11,1.1972129e-13
324.34000,1.1693129e-11,1.1888109e-13
324.35000,1.1657157e-11,1.1877749e-13
324.36000,1.1596810e-11,1.1936846e-13
324.37000,1.1567057e-11,1.1925294e-13
324.38000,1.1566173e-11,1.1801608e-13
324.39000,1.1560081e-11,1.1675197e-13
324.40000,1.1579067e-11,1.1650275e-13
324.41000,1.1609275e-11,1.1704354e-13
324.42000,1.1590633e-11,1.1753024e-13
324.43000,1.1519392e-11,1.1775840e-13
324.44000,1.1475853e-11,1.1804678e-13
324.45000,1.1494233e-11,1.1822451e-13
324.46000,1.1526341e-11,1.1796586e-13
324.47000,1.1551124e-11,1.1751103e-13
324.48000,1.1560200e-11,1.1696727e-13
324.49000,1.1555609e-11,1.1637325e-13
324.50000,1.1568690e-11,1.1638135e-13
324.51000,1.1601569e-11,1.1736097e-13
324.52000,1.1620960e-11,1.1855728e-13
324.53000,1.1587577e-11,1.1859398e-13
324.54000,1.1573629e-11,1.1798618e-13
324.55000,1.1602627e-11,1.1818729e-13
324.56000,1.1596587e-11,1.1877905e-13
324.57000,1.1574088e-11,1.1875249e-13
324.58000,1.1576569e-11,1.1875949e-13
324.59000,1.1592976e-11,1.1927661e-13
324.60000,1.1603927e-11,1.1960612e-13
324.61000,1.1605456e-11,1.1995110e-13
324.62000,1.1640584e-11,1.2034226e-13
324.63000,1.1692192e-11,1.2068010e-13
324.64000,1.1687231e-11,1.2076080e-13
324.65000,1.1643305e-11,1.2066228e-13
324.66000,1.1587101e-11,1.2066892e-13
324.67000,1.1539320e-11,1.2077871e-13
324.68000,1.1513392e-11,1.2076719e-13
324.69000,1.1449291e-11,1.2046032e-13
324.70000,1.1337063e-11,1.2000175e-13
324.71000,1.1265260e-11,1.1967781e-13
324.72000,1.1234143e-11,1.1951962e-13
324.73000,1.1186805e-11,1.1941704e-13
324.74000,1.1141000e-11,1.1928937e-13
324.75000,1.1143659e-11,1.1929627e-13
324.76000,1.1209776e-11,1.1982575e-13
324.77000,1.1257859e-11,1.2045224e-13
324.78000,1.1212911e-11,1.2055097e-13
324.79000,1.1157362e-11,1.2059326e-13
324.80000,1.1154525e-11,1.2087889e-13
324.81000,1.1168785e-11,1.2108435e-13
324.82000,1.1189354e-11,1.2134781e-13
324.83000,1.1219802e-11,1.2182750e-13
324.84000,1.1235084e-11,1.2219595e-13
324.85000,1.1232472e-11,1.2239065e-13
324.86000,1.1231895e-11,1.2261314e-13
324.87000,1.1238352e-11,1.2289682e-13
324.88000,1.1238079e-11,1.2326051e-13
324.89000,1.1240860e-11,1.2360175e-13
324.90000,1.1241157e-11,1.2363435e-13
324.91000,1.1252518e-11,1.2362938e-13
324.92000,1.1281154e-11,1.2383013e-13
324.93000,1.1274897e-11,1.2355316e-13
324.94000,1.1252263e-11,1.2298525e-13
324.95000,1.1271077e-11,1.2308254e-13
324.96000,1.1300416e-11,1.2352834e-13
324.97000,1.1281108e-11,1.2338333e-13
324.98000,1.1219085e-11,1.2276402e-13
324.99000,1.1168094e-11,1.2221160e-13
325.00000,1.1197638e-11,1.2212548e-13
325.01000,1.1262681e-11,1.2219416e-13
325.02000,1.1275452e-11,1.2190804e-13
325.03000,1.1277129e-11,1.2175265e-13
325.04000,1.1357906e-11,1.2243629e-13
325.05000,1.1427385e-11,1.2276559e-13
325.06000,1.1382912e-11,1.2186110e-13
325.07000,1.1305649e-11,1.2088008e-13
325.08000,1.1306736e-11,1.2070821e-13
325.09000,1.1345722e-11,1.2095083e-13
325.10000,1.1345607e-11,1.2096013e-13
325.11000,1.1325492e-11,1.2072431e-13
325.12000,1.1317895e-11,1.2053036e-13
325.13000,1.1307305e-11,1.2023719e-13
325.14000,1.1288204e-11,1.1979710e-13
325.15000,1.1296650e-11,1.1963091e-13
325.16000,1.1322744e-11,1.1978884e-13
325.17000,1.1328847e-11,1.1982375e-13
325.18000,1.1316231e-11,1.1961079e-13
325.19000,1.1308338e-11,1.1943062e-13
325.20000,1.1325225e-11,1.1937099e-13
325.21000,1.1349851e-11,1.1912853e-13
325.22000,1.1363903e-11,1.1875464e-13
325.23000,1.1358330e-11,1.1850481e-13
325.24000,1.1355111e-11,1.1865072e-13
