wave,flux,fluxerr
320.00000,5.2345653e-11,9.6155932e-13
320.01000,5.1688880e-11,9.5077312e-13
320.02000,5.1056955e-11,9.4487586e-13
320.03000,5.0590849e-11,9.4116544e-13
320.04000,5.0464110e-11,9.4143468e-13
320.05000,5.0502968e-11,9.4411014e-13
320.06000,5.0912322e-11,9.4993017e-13
320.07000,5.1993496e-11,9.6077549e-13
320.08000,5.3689192e-11,9.7628781e-13
320.09000,5.5568190e-11,9.9364471e-13
320.10000,5.7311676e-11,1.0108038e-12
320.11000,5.9064458e-11,1.0279109e-12
320.12000,6.0701646e-11,1.0415052e-12
320.13000,6.1883877e-11,1.0489878e-12
320.14000,6.2834168e-11,1.0536260e-12
320.15000,6.3776836e-11,1.0597744e-12
320.16000,6.4646609e-11,1.0680701e-12
320.17000,6.4936224e-11,1.0727993e-12
320.18000,6.4514460e-11,1.0713119e-12
320.19000,6.4010819e-11,1.0674761e-12
320.20000,6.3100287e-11,1.0581176e-12
320.21000,6.1059197e-11,1.0381304e-12
320.22000,5.8005394e-11,1.0091927e-12
320.23000,5.4804535e-11,9.7866764e-13
320.24000,5.2340866e-11,9.5556175e-13
320.25000,5.0937963e-11,9.4351796e-13
320.26000,5.0491616e-11,9.4032743e-13
320.27000,5.0699297e-11,9.4246073e-13
320.28000,5.1453804e-11,9.4887247e-13
320.29000,5.2544278e-11,9.5692271e-13
320.30000,5.3429318e-11,9.6306689e-13
320.31000,5.3819247e-11,9.6712188e-13
320.32000,5.3881091e-11,9.6933603e-13
320.33000,5.3877918e-11,9.6856290e-13
320.34000,5.3893711e-11,9.6646126e-13
320.35000,5.3998118e-11,9.6510756e-13
320.36000,5.4462817e-11,9.6893974e-13
320.37000,5.5483250e-11,9.8057811e-13
320.38000,5.7236579e-11,9.9743731e-13
320.39000,5.9797232e-11,1.0181551e-12
320.40000,6.2951785e-11,1.0443337e-12
320.41000,6.5847326e-11,1.0675647e-12
320.42000,6.7713239e-11,1.0797387e-12
320.43000,6.8808560e-11,1.0868804e-12
320.44000,6.9450977e-11,1.0929023e-12
320.45000,6.9653817e-11,1.0966416e-12
320.46000,6.9163385e-11,1.0953830e-12
320.47000,6.7905818e-11,1.0873387e-12
320.48000,6.6233563e-11,1.0739712e-12
320.49000,6.4442183e-11,1.0578439e-12
320.50000,6.2320365e-11,1.0376125e-12
320.51000,5.9817996e-11,1.0152449e-12
320.52000,5.7558507e-11,9.9811650e-13
320.53000,5.6217506e-11,9.8962902e-13
320.54000,5.5617659e-11,9.8583989e-13
320.55000,5.5517206e-11,9.8505023e-13
320.56000,5.5908554e-11,9.8757155e-13
320.57000,5.6824791e-11,9.9430002e-13
320.58000,5.8311724e-11,1.0067250e-12
320.59000,5.9936757e-11,1.0222740e-12
320.60000,6.1577259e-11,1.0394706e-12
320.61000,6.3126649e-11,1.0542107e-12
320.62000,6.4228303e-11,1.0642037e-12
320.63000,6.5182689e-11,1.0707583e-12
320.64000,6.6085190e-11,1.0758560e-12
320.65000,6.6714512e-11,1.0810438e-12
320.66000,6.7084653e-11,1.0835394e-12
320.67000,6.6748328e-11,1.0817992e-12
320.68000,6.5745034e-11,1.0772123e-12
320.69000,6.4958430e-11,1.0721860e-12
320.70000,6.4707992e-11,1.0707502e-12
320.71000,6.4741178e-11,1.0723660e-12
320.72000,6.4940040e-11,1.0704285e-12
320.73000,6.5375097e-11,1.0683871e-12
320.74000,6.6212998e-11,1.0751474e-12
320.75000,6.7053294e-11,1.0855127e-12
320.76000,6.7667083e-11,1.0899305e-12
320.77000,6.8184959e-11,1.0902491e-12
320.78000,6.8225140e-11,1.0883234e-12
320.79000,6.7585720e-11,1.0835831e-12
320.80000,6.6206974e-11,1.0761699e-12
320.81000,6.3891168e-11,1.0585858e-12
320.82000,6.0611597e-11,1.0237759e-12
320.83000,5.6901520e-11,9.8398403e-13
320.84000,5.3568902e-11,9.5276170e-13
320.85000,5.1404570e-11,9.3341094e-13
320.86000,5.0077820e-11,9.1919498e-13
320.87000,4.8804668e-11,9.0513931e-13
320.88000,4.7443699e-11,8.9148172e-13
320.89000,4.6319690e-11,8.8085151e-13
320.90000,4.5804497e-11,8.7524270e-13
320.91000,4.6071210e-11,8.7606658e-13
320.92000,4.7074572e-11,8.8342974e-13
320.93000,4.8406738e-11,8.9361812e-13
320.94000,4.9637029e-11,9.0381783e-13
320.95000,5.1114844e-11,9.1704989e-13
320.96000,5.3194068e-11,9.3568745e-13
320.97000,5.5507739e-11,9.5680434e-13
320.98000,5.7473543e-11,9.7283261e-13
320.99000,5.8392131e-11,9.7823858e-13
321.00000,5.7192849e-11,9.7138423e-13
321.01000,5.4139467e-11,9.5194678e-13
321.02000,5.0211499e-11,9.1829645e-13
321.03000,4.6719154e-11,8.8111226e-13
321.04000,4.4284072e-11,8.5412972e-13
321.05000,4.2660814e-11,8.3825822e-13
321.06000,4.1851432e-11,8.3324460e-13
321.07000,4.2148874e-11,8.3839389e-13
321.08000,4.3768238e-11,8.5049558e-13
321.09000,4.6866949e-11,8.7446806e-13
321.10000,5.0443284e-11,9.0495622e-13
321.11000,5.3133854e-11,9.2785842e-13
321.12000,5.4638566e-11,9.3828446e-13
321.13000,5.4970889e-11,9.3924708e-13
321.14000,5.4165425e-11,9.3174511e-13
321.15000,5.2575254e-11,9.1596742e-13
321.16000,5.0095033e-11,8.9393031e-13
321.17000,4.6769815e-11,8.6680978e-13
321.18000,4.3664539e-11,8.4077517e-13
321.19000,4.1808819e-11,8.2650663e-13
321.20000,4.1515506e-11,8.2513953e-13
321.21000,4.2685855e-11,8.3485559e-13
321.22000,4.4766514e-11,8.5104390e-13
321.23000,4.7445452e-11,8.7304672e-13
321.24000,5.0351807e-11,8.9899689e-13
321.25000,5.3021140e-11,9.2244058e-13
321.26000,5.5065749e-11,9.4007811e-13
321.27000,5.6031516e-11,9.4777653e-13
321.28000,5.5401346e-11,9.4072355e-13
321.29000,5.3071347e-11,9.1827034e-13
321.30000,4.9686634e-11,8.8710570e-13
321.31000,4.6113838e-11,8.5596732e-13
321.32000,4.3142337e-11,8.3115584e-13
321.33000,4.1525973e-11,8.1685502e-13
321.34000,4.1216034e-11,8.1299363e-13
321.35000,4.1762762e-11,8.1663253e-13
321.36000,4.3041283e-11,8.2479233e-13
321.37000,4.4376388e-11,8.3171452e-13
321.38000,4.5099067e-11,8.3417898e-13
321.39000,4.5424341e-11,8.3676197e-13
321.40000,4.5503136e-11,8.3954330e-13
321.41000,4.5423853e-11,8.3964332e-13
321.42000,4.5379486e-11,8.3875495e-13
321.43000,4.5134451e-11,8.3736889e-13
321.44000,4.4540821e-11,8.3098824e-13
321.45000,4.4319156e-11,8.2377502e-13
321.46000,4.5380841e-11,8.2768209e-13
321.47000,4.7404764e-11,8.4333334e-13
321.48000,4.9317528e-11,8.6069106e-13
321.49000,5.0648615e-11,8.7305732e-13
321.50000,5.1736576e-11,8.8208675e-13
321.51000,5.2904984e-11,8.9171318e-13
321.52000,5.4428990e-11,9.0388540e-13
321.53000,5.6251757e-11,9.1630942e-13
321.54000,5.7885900e-11,9.2634726e-13
321.55000,5.8616874e-11,9.2924537e-13
321.56000,5.8291719e-11,9.2401353e-13
321.57000,5.7619734e-11,9.1800078e-13
321.58000,5.7395751e-11,9.1843679e-13
321.59000,5.7776432e-11,9.2517213e-13
321.60000,5.8415954e-11,9.3325078e-13
321.61000,5.8769738e-11,9.3628343e-13
321.62000,5.8319049e-11,9.3133922e-13
321.63000,5.7141021e-11,9.2164613e-13
321.64000,5.5765642e-11,9.1126591e-13
321.65000,5.4054253e-11,8.9792010e-13
321.66000,5.1253073e-11,8.7553273e-13
321.67000,4.7076595e-11,8.4086717e-13
321.68000,4.2394124e-11,7.9849341e-13
321.69000,3.8215856e-11,7.5846779e-13
321.70000,3.5045804e-11,7.2862247e-13
321.71000,3.3168097e-11,7.1249090e-13
321.72000,3.2961311e-11,7.1359734e-13
321.73000,3.4605298e-11,7.3211036e-13
321.74000,3.7639765e-11,7.6150906e-13
321.75000,4.1203451e-11,7.9408059e-13
321.76000,4.4851933e-11,8.2638844e-13
321.77000,4.8469136e-11,8.5722208e-13
321.78000,5.1776944e-11,8.8532209e-13
321.79000,5.4077704e-11,9.0592768e-13
321.80000,5.4971435e-11,9.1573610e-13
321.81000,5.5253131e-11,9.2094005e-13
321.82000,5.5827979e-11,9.2885740e-13
321.83000,5.6824766e-11,9.3965999e-13
321.84000,5.7780164e-11,9.4867388e-13
321.85000,5.8614272e-11,9.5650626e-13
321.86000,5.9744969e-11,9.6782452e-13
321.87000,6.1309592e-11,9.8285412e-13
321.88000,6.3251130e-11,9.9914019e-13
321.89000,6.5137536e-11,1.0145820e-12
321.90000,6.6112924e-11,1.0241207e-12
321.91000,6.5612112e-11,1.0208252e-12
321.92000,6.3756111e-11,1.0039833e-12
321.93000,6.1178637e-11,9.8101952e-13
321.94000,5.8396549e-11,9.5766396e-13
321.95000,5.5647876e-11,9.3623011e-13
321.96000,5.3563916e-11,9.1854062e-13
321.97000,5.2721876e-11,9.0972316e-13
321.98000,5.2813488e-11,9.0944766e-13
321.99000,5.3598911e-11,9.1220736e-13
322.00000,5.5035417e-11,9.2422543e-13
322.01000,5.7125764e-11,9.4176285e-13
322.02000,5.9966534e-11,9.5909236e-13
322.03000,6.2892797e-11,9.8260757e-13
322.04000,6.5110918e-11,1.0075645e-12
322.05000,6.6347806e-11,1.0158093e-12
322.06000,6.6840503e-11,1.0075463e-12
322.07000,6.7094790e-11,1.0001355e-12
322.08000,6.6978942e-11,1.0001411e-12
322.09000,6.6513733e-11,1.0032959e-12
322.10000,6.5795969e-11,1.0062988e-12
322.11000,6.4879375e-11,1.0069695e-12
322.12000,6.3709918e-11,1.0026314e-12
322.13000,6.2135026e-11,9.9001463e-13
322.14000,6.0383558e-11,9.7055753e-13
322.15000,5.8475768e-11,9.4633843e-13
322.16000,5.5982426e-11,9.1666676e-13
322.17000,5.3165992e-11,8.8613070e-13
322.18000,5.0771909e-11,8.6179590e-13
322.19000,4.9105389e-11,8.4733829e-13
322.20000,4.8405172e-11,8.4657039e-13
322.21000,4.8770143e-11,8.5890442e-13
322.22000,4.9866187e-11,8.7114602e-13
322.23000,5.1058437e-11,8.7432793e-13
322.24000,5.1810979e-11,8.7703569e-13
322.25000,5.1911648e-11,8.8119429e-13
322.26000,5.1392754e-11,8.7779508e-13
322.27000,5.0664247e-11,8.7236632e-13
322.28000,5.0070130e-11,8.7147768e-13
322.29000,4.9506163e-11,8.6847453e-13
322.30000,4.9081918e-11,8.6557931e-13
322.31000,4.9348123e-11,8.6670176e-13
322.32000,5.0818759e-11,8.7567803e-13
322.33000,5.3283509e-11,8.9337734e-13
322.34000,5.6418409e-11,9.1782899e-13
322.35000,5.9468259e-11,9.4477552e-13
322.36000,6.1959818e-11,9.6821006e-13
322.37000,6.3747491e-11,9.8461116e-13
322.38000,6.4093311e-11,9.8838779e-13
322.39000,6.2798313e-11,9.7936519e-13
322.40000,6.0819491e-11,9.6650259e-13
322.41000,5.9549399e-11,9.5978763e-13
322.42000,5.9020087e-11,9.5773419e-13
322.43000,5.8444061e-11,9.5416824e-13
322.44000,5.7830106e-11,9.4840089e-13
322.45000,5.7409613e-11,9.4264415e-13
322.46000,5.7006489e-11,9.3829806e-13
322.47000,5.6850728e-11,9.3813493e-13
322.48000,5.7386812e-11,9.4349685e-13
322.49000,5.8106179e-11,9.5007482e-13
322.50000,5.8186488e-11,9.5255600e-13
322.51000,5.7470301e-11,9.4903870e-13
322.52000,5.6469961e-11,9.4098570e-13
322.53000,5.5298828e-11,9.2870406e-13
322.54000,5.3875836e-11,9.1371892e-13
322.55000,5.2212814e-11,8.9919744e-13
322.56000,5.0324561e-11,8.8612955e-13
322.57000,4.8712327e-11,8.7590140e-13
322.58000,4.7837174e-11,8.6941971e-13
322.59000,4.7550752e-11,8.6678251e-13
322.60000,4.8009535e-11,8.7070451e-13
322.61000,4.9547278e-11,8.8313616e-13
322.62000,5.1848756e-11,9.0112549e-13
322.63000,5.4205541e-11,9.1955501e-13
322.64000,5.5895664e-11,9.3264691e-13
322.65000,5.6364509e-11,9.3589162e-13
322.66000,5.5463714e-11,9.2873626e-13
322.67000,5.3717158e-11,9.1521399e-13
322.68000,5.1957200e-11,9.0168327e-13
322.69000,5.0726342e-11,8.9160040e-13
322.70000,5.0385018e-11,8.8720092e-13
322.71000,5.0773524e-11,8.8929985e-13
322.72000,5.1051681e-11,8.9338091e-13
322.73000,5.0650043e-11,8.9179859e-13
322.74000,4.9513802e-11,8.8300542e-13
322.75000,4.7824219e-11,8.7095064e-13
322.76000,4.5537360e-11,8.5423268e-13
322.77000,4.2716230e-11,8.3011796e-13
322.78000,3.9842932e-11,8.0267551e-13
322.79000,3.7383237e-11,7.7850901e-13
322.80000,3.5987107e-11,7.6470640e-13
322.81000,3.5917080e-11,7.6344512e-13
322.82000,3.6581096e-11,7.6855814e-13
322.83000,3.7563089e-11,7.7696181e-13
322.84000,3.8877608e-11,7.8995650e-13
322.85000,4.0321642e-11,8.0377058e-13
322.86000,4.1385312e-11,8.1141291e-13
322.87000,4.1618038e-11,8.1137676e-13
322.88000,4.0777142e-11,8.0300055e-13
322.89000,3.8988424e-11,7.8646982e-13
322.90000,3.6647686e-11,7.6537775e-13
322.91000,3.4502916e-11,7.4706567e-13
322.92000,3.3326567e-11,7.3678921e-13
322.93000,3.3290771e-11,7.3543256e-13
322.94000,3.3835375e-11,7.3830080e-13
322.95000,3.4564602e-11,7.4197132e-13
322.96000,3.5762016e-11,7.5172255e-13
322.97000,3.7450070e-11,7.6504654e-13
322.98000,3.9394047e-11,7.7913816e-13
322.99000,4.1624465e-11,7.9959747e-13
323.00000,4.3966350e-11,8.2266648e-13
323.01000,4.6079357e-11,8.3942569e-13
323.02000,4.7864537e-11,8.5168753e-13
323.03000,4.9645300e-11,8.6502004e-13
323.04000,5.1668990e-11,8.7900196e-13
323.05000,5.3402205e-11,8.8909410e-13
323.06000,5.4595206e-11,8.9632334e-13
323.07000,5.5304549e-11,9.0384909e-13
323.08000,5.5517462e-11,9.0812438e-13
323.09000,5.4696770e-11,8.9975070e-13
323.10000,5.3015820e-11,8.8338201e-13
323.11000,5.1330215e-11,8.6992370e-13
323.12000,5.0143318e-11,8.6121114e-13
323.13000,4.9401353e-11,8.5642804e-13
323.14000,4.9012981e-11,8.5630120e-13
323.15000,4.8977515e-11,8.5839053e-13
323.16000,4.9417323e-11,8.6010469e-13
323.17000,5.0369915e-11,8.6177644e-13
323.18000,5.1051893e-11,8.6064079e-13
323.19000,5.0854423e-11,8.5546359e-13
323.20000,5.0440396e-11,8.5076447e-13
323.21000,5.0597460e-11,8.4926565e-13
323.22000,5.1321753e-11,8.5140563e-13
323.23000,5.1985324e-11,8.5604816e-13
323.24000,5.1948669e-11,8.5809858e-13
323.25000,5.0823867e-11,8.5321148e-13
323.26000,4.9018911e-11,8.4436794e-13
323.27000,4.7275175e-11,8.3507465e-13
323.28000,4.6155842e-11,8.2610735e-13
323.29000,4.6049407e-11,8.1879330e-13
323.30000,4.6798448e-11,8.1657357e-13
323.31000,4.7932042e-11,8.2154440e-13
323.32000,4.9207252e-11,8.3071514e-13
323.33000,5.0953251e-11,8.4495613e-13
323.34000,5.3473235e-11,8.6889767e-13
323.35000,5.5959769e-11,8.9131757e-13
323.36000,5.7023241e-11,8.9675650e-13
323.37000,5.6282943e-11,8.8706724e-13
323.38000,5.4531960e-11,8.7112263e-13
323.39000,5.2426653e-11,8.5214132e-13
323.40000,4.9665444e-11,8.2463577e-13
323.41000,4.6007664e-11,7.9120608e-13
323.42000,4.1919992e-11,7.5832335e-13
323.43000,3.8276833e-11,7.2810700e-13
323.44000,3.5779381e-11,7.0482839e-13
323.45000,3.4626296e-11,6.9377806e-13
323.46000,3.4661487e-11,6.9266412e-13
323.47000,3.5781827e-11,6.9985885e-13
323.48000,3.7998474e-11,7.1699768e-13
323.49000,4.1306025e-11,7.4254058e-13
323.50000,4.5618026e-11,7.7645597e-13
323.51000,5.0526942e-11,8.1461263e-13
323.52000,5.5300271e-11,8.5054391e-13
323.53000,5.9145560e-11,8.7988521e-13
323.54000,6.1835676e-11,8.9972588e-13
323.55000,6.3435533e-11,9.1072304e-13
323.56000,6.3857576e-11,9.1172314e-13
323.57000,6.2961631e-11,9.0282312e-13
323.58000,6.0695170e-11,8.8397164e-13
323.59000,5.7426408e-11,8.5788824e-13
323.60000,5.3708623e-11,8.2782758e-13
323.61000,4.9632636e-11,7.9301254e-13
323.62000,4.5142558e-11,7.5438527e-13
323.63000,4.0608621e-11,7.1609354e-13
323.64000,3.6687058e-11,6.8288641e-13
323.65000,3.4327800e-11,6.6236068e-13
323.66000,3.4207939e-11,6.6060630e-13
323.67000,3.5960037e-11,6.7478840e-13
323.68000,3.8921241e-11,6.9800425e-13
323.69000,4.2506402e-11,7.2582656e-13
323.70000,4.6235859e-11,7.5601425e-13
323.71000,4.9954073e-11,7.8554231e-13
323.72000,5.3413981e-11,8.1158300e-13
323.73000,5.6172728e-11,8.3228462e-13
323.74000,5.7580221e-11,8.4414683e-13
323.75000,5.7354249e-11,8.4471703e-13
323.76000,5.6281179e-11,8.3868447e-13
323.77000,5.5388209e-11,8.3310335e-13
323.78000,5.5033441e-11,8.3004855e-13
323.79000,5.5311792e-11,8.2949113e-13
323.80000,5.6295185e-11,8.3314455e-13
323.81000,5.7517938e-11,8.4110750e-13
323.82000,5.8762753e-11,8.5153651e-13
323.83000,6.0052790e-11,8.6164716e-13
323.84000,6.0837121e-11,8.6761761e-13
323.85000,6.0240891e-11,8.6447209e-13
323.86000,5.7938261e-11,8.4825481e-13
323.87000,5.4133043e-11,8.1873864e-13
323.88000,4.9295878e-11,7.8082726e-13
323.89000,4.4575703e-11,7.4264321e-13
323.90000,4.0841364e-11,7.1112966e-13
323.91000,3.7838422e-11,6.8663834e-13
323.92000,3.5276193e-11,6.6662048e-13
323.93000,3.3628065e-11,6.5381670e-13
323.94000,3.3408487e-11,6.5269114e-13
323.95000,3.4878910e-11,6.6560184e-13
323.96000,3.7837458e-11,6.8988829e-13
323.97000,4.1529211e-11,7.1947470e-13
323.98000,4.5304183e-11,7.5034110e-13
323.99000,4.9059026e-11,7.8085943e-13
324.00000,5.2923622e-11,8.1067216e-13
324.01000,5.6801319e-11,8.3998632e-13
324.02000,6.0290712e-11,8.6734588e-13
324.03000,6.2733673e-11,8.8782080e-13
324.04000,6.3856709e-11,8.9836924e-13
324.05000,6.3735738e-11,8.9907867e-13
324.06000,6.2944708e-11,8.9326391e-13
324.07000,6.2186018e-11,8.8633494e-13
324.08000,6.1631098e-11,8.8143229e-13
324.09000,6.1310889e-11,8.7929110e-13
324.10000,6.1471573e-11,8.8034678e-13
324.11000,6.2278399e-11,8.8454888e-13
324.12000,6.3116148e-11,8.8874875e-13
324.13000,6.3393644e-11,8.9056205e-13
324.14000,6.2900066e-11,8.8705245e-13
324.15000,6.1373728e-11,8.7384457e-13
324.16000,5.8615717e-11,8.5015672e-13
324.17000,5.4633583e-11,8.1816746e-13
324.18000,5.0092641e-11,7.8329158e-13
324.19000,4.5823955e-11,7.5056722e-13
324.20000,4.2583129e-11,7.2463695e-13
324.21000,4.1028635e-11,7.1032577e-13
324.22000,4.1309041e-11,7.1046922e-13
324.23000,4.3120410e-11,7.2339192e-13
324.24000,4.6084570e-11,7.4618936e-13
324.25000,4.9773179e-11,7.7453240e-13
324.26000,5.3553462e-11,8.0374406e-13
324.27000,5.6565732e-11,8.2363272e-13
324.28000,5.8418988e-11,8.3472869e-13
324.29000,5.9285953e-11,8.3952816e-13
324.30000,5.9450656e-11,8.3650559e-13
324.31000,5.8996172e-11,8.3366600e-13
324.32000,5.7928868e-11,8.2789604e-13
324.33000,5.6403428e-11,8.1199052e-13
324.34000,5.4752141e-11,7.9654267e-13
324.35000,5.3505187e-11,7.9280379e-13
324.36000,5.2934923e-11,7.9630009e-13
324.37000,5.2706585e-11,7.9420216e-13
324.38000,5.2384134e-11,7.8445766e-13
324.39000,5.1870720e-11,7.7377388e-13
324.40000,5.1653713e-11,7.6814695e-13
324.41000,5.2331550e-11,7.7113939e-13
324.42000,5.3980623e-11,7.8154154e-13
324.43000,5.6111190e-11,7.9649431e-13
324.44000,5.8376945e-11,8.1424866e-13
324.45000,6.0729805e-11,8.3251112e-13
324.46000,6.3037789e-11,8.5060858e-13
324.47000,6.4927075e-11,8.6860559e-13
324.48000,6.6428893e-11,8.8775224e-13
324.49000,6.7513861e-11,9.0271068e-13
324.50000,6.7635914e-11,9.0158082e-13
324.51000,6.6969830e-11,8.8814322e-13
324.52000,6.6210726e-11,8.7959129e-13
324.53000,6.5695845e-11,8.8244294e-13
324.54000,6.5276634e-11,8.8424826e-13
324.55000,6.4904338e-11,8.7969193e-13
324.56000,6.4182456e-11,8.7691123e-13
324.57000,6.2963686e-11,8.7281430e-13
324.58000,6.2045795e-11,8.6680948e-13
324.59000,6.1753232e-11,8.6662262e-13
324.60000,6.1735436e-11,8.6959869e-13
324.61000,6.1663713e-11,8.7304238e-13
324.62000,6.1682759e-11,8.7553698e-13
324.63000,6.2038515e-11,8.7802661e-13
324.64000,6.2522289e-11,8.8107381e-13
324.65000,6.2892438e-11,8.8401639e-13
324.66000,6.2730041e-11,8.8446729e-13
324.67000,6.1467966e-11,8.7699409e-13
324.68000,5.8807016e-11,8.5841805e-13
324.69000,5.5368199e-11,8.3401992e-13
324.70000,5.1814016e-11,8.0840656e-13
324.71000,4.7978580e-11,7.8032310e-13
324.72000,4.4083477e-11,7.5128565e-13
324.73000,4.1189916e-11,7.2850755e-13
324.74000,4.0029705e-11,7.1915774e-13
324.75000,4.0694219e-11,7.2570215e-13
324.76000,4.2959802e-11,7.4569880e-13
324.77000,4.6074573e-11,7.7198044e-13
324.78000,4.9156379e-11,7.9815072e-13
324.79000,5.1714074e-11,8.2045733e-13
324.80000,5.3372440e-11,8.3485496e-13
324.81000,5.3698950e-11,8.3806243e-13
324.82000,5.2402688e-11,8.2866128e-13
324.83000,4.9376434e-11,8.0591418e-13
324.84000,4.5471847e-11,7.7621948e-13
324.85000,4.2387479e-11,7.5252663e-13
324.86000,4.1062894e-11,7.4213352e-13
324.87000,4.1119072e-11,7.4268195e-13
324.88000,4.2036632e-11,7.5174219e-13
324.89000,4.3491427e-11,7.6653188e-13
324.90000,4.5220424e-11,7.8313235e-13
324.91000,4.7124674e-11,7.9978089e-13
324.92000,4.8782978e-11,8.1292677e-13
324.93000,4.9676997e-11,8.1934826e-13
324.94000,4.9824542e-11,8.2024866e-13
324.95000,4.9582434e-11,8.1905216e-13
324.96000,4.9469486e-11,8.1930998e-13
324.97000,5.0068716e-11,8.2549676e-13
324.98000,5.1615423e-11,8.3962503e-13
324.99000,5.3638366e-11,8.5707696e-13
325.00000,5.5462914e-11,8.7188000e-13
325.01000,5.6868499e-11,8.8159518e-13
325.02000,5.7586479e-11,8.8435668e-13
325.03000,5.7424807e-11,8.8261191e-13
325.04000,5.6537952e-11,8.7854719e-13
325.05000,5.5193365e-11,8.6705782e-13
325.06000,5.4151756e-11,8.4999651e-13
325.07000,5.3752389e-11,8.3974680e-13
325.08000,5.3338197e-11,8.3495244e-13
325.09000,5.2720693e-11,8.2977567e-13
325.10000,5.2556654e-11,8.2817167e-13
325.11000,5.3194686e-11,8.3282924e-13
325.12000,5.4287443e-11,8.3967035e-13
325.13000,5.5265419e-11,8.4474481e-13
325.14000,5.5551308e-11,8.4462576e-13
325.15000,5.4680996e-11,8.3648521e-13
325.16000,5.2883613e-11,8.2211836e-13
325.17000,5.1209603e-11,8.0923243e-13
325.18000,5.0219148e-11,8.0222203e-13
325.19000,4.9997497e-11,8.0112692e-13
325.20000,5.0209951e-11,8.0242577e-13
325.21000,5.0385620e-11,8.0216525e-13
325.22000,5.0786345e-11,8.0306813e-13
325.23000,5.1909173e-11,8.0916784e-13
325.24000,5.3186404e-11,8.1760252e-13
