wave,flux,fluxerr
320.00000,8.7811500e-12,1.2832386e-13
320.01000,8.7758330e-12,1.2855445e-13
320.02000,8.8045673e-12,1.2854260e-13
320.03000,8.9053983e-12,1.2936092e-13
320.04000,9.0490279e-12,1.3111198e-13
320.05000,9.1942672e-12,1.3241092e-13
320.06000,9.3574970e-12,1.3385155e-13
320.07000,9.5282697e-12,1.3551985e-13
320.08000,9.6808970e-12,1.3696078e-13
320.09000,9.8243275e-12,1.3807030e-13
320.10000,9.9396165e-12,1.3909074e-13
320.11000,1.0020180e-11,1.3987668e-13
320.12000,1.0111651e-11,1.4057052e-13
320.13000,1.0218450e-11,1.4121903e-13
320.14000,1.0261625e-11,1.4133491e-13
320.15000,1.0200915e-11,1.4069300e-13
320.16000,1.0088447e-11,1.4000837e-13
320.17000,9.9460268e-12,1.3922600e-13
320.18000,9.8189543e-12,1.3811280e-13
320.19000,9.7479975e-12,1.3716583e-13
320.20000,9.6899186e-12,1.3635889e-13
320.21000,9.5829152e-12,1.3502066e-13
320.22000,9.4297073e-12,1.3332802e-13
320.23000,9.2766068e-12,1.3215896e-13
320.24000,9.1105826e-12,1.3126540e-13
320.25000,8.9453105e-12,1.3016725e-13
320.26000,8.8324363e-12,1.2915275e-13
320.27000,8.7888848e-12,1.2854458e-13
320.28000,8.8177090e-12,1.2845445e-13
320.29000,8.9063955e-12,1.2913368e-13
320.30000,9.0241273e-12,1.3022223e-13
320.31000,9.1782473e-12,1.3137977e-13
320.32000,9.3716195e-12,1.3290328e-13
320.33000,9.6158226e-12,1.3491370e-13
320.34000,9.8958034e-12,1.3695566e-13
320.35000,1.0178295e-11,1.3908061e-13
320.36000,1.0421906e-11,1.4112832e-13
320.37000,1.0604186e-11,1.4282105e-13
320.38000,1.0736458e-11,1.4423875e-13
320.39000,1.0839089e-11,1.4515854e-13
320.40000,1.0896613e-11,1.4516648e-13
320.41000,1.0911229e-11,1.4499096e-13
320.42000,1.0957810e-11,1.4549134e-13
320.43000,1.1029772e-11,1.4620366e-13
320.44000,1.1032153e-11,1.4654846e-13
320.45000,1.0956153e-11,1.4651944e-13
320.46000,1.0854971e-11,1.4574669e-13
320.47000,1.0731000e-11,1.4429555e-13
320.48000,1.0582167e-11,1.4270811e-13
320.49000,1.0441360e-11,1.4147552e-13
320.50000,1.0304171e-11,1.4058006e-13
320.51000,1.0177474e-11,1.3993249e-13
320.52000,1.0118098e-11,1.3950240e-13
320.53000,1.0123590e-11,1.3947302e-13
320.54000,1.0146438e-11,1.3973259e-13
320.55000,1.0185015e-11,1.4000553e-13
320.56000,1.0252188e-11,1.4047343e-13
320.57000,1.0290354e-11,1.4102469e-13
320.58000,1.0317123e-11,1.4161728e-13
320.59000,1.0401847e-11,1.4256802e-13
320.60000,1.0521898e-11,1.4380437e-13
320.61000,1.0618809e-11,1.4473737e-13
320.62000,1.0728701e-11,1.4545437e-13
320.63000,1.0892613e-11,1.4649809e-13
320.64000,1.1031642e-11,1.4741673e-13
320.65000,1.1111462e-11,1.4827832e-13
320.66000,1.1172502e-11,1.4909588e-13
320.67000,1.1241631e-11,1.4975791e-13
320.68000,1.1300313e-11,1.5034828e-13
320.69000,1.1338105e-11,1.5076796e-13
320.70000,1.1371954e-11,1.5112432e-13
320.71000,1.1356470e-11,1.5087317e-13
320.72000,1.1278409e-11,1.4994183e-13
320.73000,1.1130719e-11,1.4862085e-13
320.74000,1.0906178e-11,1.4697126e-13
320.75000,1.0653916e-11,1.4474558e-13
320.76000,1.0451715e-11,1.4233843e-13
320.77000,1.0287633e-11,1.4066081e-13
320.78000,1.0093625e-11,1.3943542e-13
320.79000,9.8854738e-12,1.3790001e-13
320.80000,9.6779791e-12,1.3568635e-13
320.81000,9.4450348e-12,1.3326971e-13
320.82000,9.2017974e-12,1.3093215e-13
320.83000,8.9513714e-12,1.2852696e-13
320.84000,8.7158460e-12,1.2691269e-13
320.85000,8.5269020e-12,1.2606299e-13
320.86000,8.3847260e-12,1.2491232e-13
320.87000,8.3005073e-12,1.2341759e-13
320.88000,8.2673372e-12,1.2216224e-13
320.89000,8.2442855e-12,1.2141068e-13
320.90000,8.2404253e-12,1.2123733e-13
320.91000,8.2546541e-12,1.2119931e-13
320.92000,8.2394116e-12,1.2088111e-13
320.93000,8.1996168e-12,1.2061094e-13
320.94000,8.1696359e-12,1.2058374e-13
320.95000,8.1585448e-12,1.2053166e-13
320.96000,8.1168378e-12,1.2013233e-13
320.97000,8.0348660e-12,1.1949578e-13
320.98000,7.9570028e-12,1.1910094e-13
320.99000,7.9385471e-12,1.1954443e-13
321.00000,7.9887852e-12,1.2063121e-13
321.01000,8.0598063e-12,1.2117045e-13
321.02000,8.1339130e-12,1.2090620e-13
321.03000,8.1525106e-12,1.2024020e-13
321.04000,8.0847832e-12,1.1926237e-13
321.05000,7.9674547e-12,1.1810928e-13
321.06000,7.8408301e-12,1.1735013e-13
321.07000,7.7050742e-12,1.1651435e-13
321.08000,7.5736754e-12,1.1511669e-13
321.09000,7.4895354e-12,1.1412203e-13
321.10000,7.4568235e-12,1.1392548e-13
321.11000,7.4713455e-12,1.1416596e-13
321.12000,7.5346304e-12,1.1437041e-13
321.13000,7.6173300e-12,1.1478283e-13
321.14000,7.7177084e-12,1.1571331e-13
321.15000,7.8410442e-12,1.1668208e-13
321.16000,7.9455674e-12,1.1741299e-13
321.17000,7.9949404e-12,1.1824427e-13
321.18000,7.9819417e-12,1.1855965e-13
321.19000,7.9103803e-12,1.1799360e-13
321.20000,7.7968266e-12,1.1705313e-13
321.21000,7.6604827e-12,1.1574161e-13
321.22000,7.5276021e-12,1.1436965e-13
321.23000,7.4028355e-12,1.1314424e-13
321.24000,7.3365186e-12,1.1260775e-13
321.25000,7.3558639e-12,1.1284000e-13
321.26000,7.4060072e-12,1.1296353e-13
321.27000,7.4580471e-12,1.1299497e-13
321.28000,7.5104206e-12,1.1320276e-13
321.29000,7.5308982e-12,1.1338693e-13
321.30000,7.4810295e-12,1.1311475e-13
321.31000,7.3593466e-12,1.1229612e-13
321.32000,7.2097806e-12,1.1117915e-13
321.33000,7.0725338e-12,1.0996892e-13
321.34000,6.9673482e-12,1.0874375e-13
321.35000,6.9044396e-12,1.0776720e-13
321.36000,6.8713142e-12,1.0709212e-13
321.37000,6.8529676e-12,1.0655971e-13
321.38000,6.8579654e-12,1.0640939e-13
321.39000,6.9219577e-12,1.0708861e-13
321.40000,7.0801156e-12,1.0888286e-13
321.41000,7.3090879e-12,1.1148556e-13
321.42000,7.5246350e-12,1.1345130e-13
321.43000,7.7320404e-12,1.1441948e-13
321.44000,7.9171990e-12,1.1504425e-13
321.45000,8.0499516e-12,1.1538529e-13
321.46000,8.1436388e-12,1.1576078e-13
321.47000,8.2260175e-12,1.1646298e-13
321.48000,8.3347878e-12,1.1731987e-13
321.49000,8.4860025e-12,1.1835921e-13
321.50000,8.6845663e-12,1.1991801e-13
321.51000,8.8928409e-12,1.2156224e-13
321.52000,9.0379658e-12,1.2236432e-13
321.53000,9.1438197e-12,1.2268456e-13
321.54000,9.2625892e-12,1.2339890e-13
321.55000,9.3338275e-12,1.2388082e-13
321.56000,9.2904181e-12,1.2351180e-13
321.57000,9.2112603e-12,1.2316931e-13
321.58000,9.0854446e-12,1.2264055e-13
321.59000,8.8471277e-12,1.2094186e-13
321.60000,8.5549129e-12,1.1856459e-13
321.61000,8.2664005e-12,1.1638966e-13
321.62000,7.9738922e-12,1.1430889e-13
321.63000,7.6763865e-12,1.1206342e-13
321.64000,7.4170963e-12,1.1010249e-13
321.65000,7.2321762e-12,1.0867890e-13
321.66000,7.0977868e-12,1.0730998e-13
321.67000,7.0204963e-12,1.0626792e-13
321.68000,7.0068718e-12,1.0608212e-13
321.69000,7.0097956e-12,1.0637132e-13
321.70000,6.9775165e-12,1.0651822e-13
321.71000,6.9268503e-12,1.0657548e-13
321.72000,6.9136551e-12,1.0675990e-13
321.73000,6.9776481e-12,1.0717760e-13
321.74000,7.1419437e-12,1.0840917e-13
321.75000,7.4194767e-12,1.1081883e-13
321.76000,7.7912947e-12,1.1395385e-13
321.77000,8.1829161e-12,1.1708520e-13
321.78000,8.5274920e-12,1.1989696e-13
321.79000,8.8721212e-12,1.2283171e-13
321.80000,9.2574057e-12,1.2606203e-13
321.81000,9.6230431e-12,1.2903166e-13
321.82000,9.9088872e-12,1.3141083e-13
321.83000,1.0084254e-11,1.3279562e-13
321.84000,1.0141335e-11,1.3309577e-13
321.85000,1.0099389e-11,1.3298768e-13
321.86000,1.0027923e-11,1.3301540e-13
321.87000,9.9772311e-12,1.3290173e-13
321.88000,9.9281498e-12,1.3260487e-13
321.89000,9.9101739e-12,1.3266867e-13
321.90000,9.9316502e-12,1.3270815e-13
321.91000,9.9892088e-12,1.3272862e-13
321.92000,1.0070027e-11,1.3313679e-13
321.93000,1.0141057e-11,1.3374807e-13
321.94000,1.0190685e-11,1.3413199e-13
321.95000,1.0205072e-11,1.3408916e-13
321.96000,1.0171223e-11,1.3370721e-13
321.97000,1.0141129e-11,1.3312328e-13
321.98000,1.0184870e-11,1.3278234e-13
321.99000,1.0278751e-11,1.3338875e-13
322.00000,1.0366396e-11,1.3380692e-13
322.01000,1.0429684e-11,1.3429622e-13
322.02000,1.0494550e-11,1.3502597e-13
322.03000,1.0569052e-11,1.3497476e-13
322.04000,1.0663835e-11,1.3525595e-13
322.05000,1.0788723e-11,1.3656691e-13
322.06000,1.0861173e-11,1.3686610e-13
322.07000,1.0773248e-11,1.3473796e-13
322.08000,1.0592903e-11,1.3236361e-13
322.09000,1.0379458e-11,1.3094267e-13
322.10000,1.0149905e-11,1.3015052e-13
322.11000,9.9220477e-12,1.2945054e-13
322.12000,9.7422165e-12,1.2894549e-13
322.13000,9.6194987e-12,1.2855312e-13
322.14000,9.5055787e-12,1.2767663e-13
322.15000,9.3577487e-12,1.2627622e-13
322.16000,9.1419434e-12,1.2440311e-13
322.17000,8.8876514e-12,1.2193329e-13
322.18000,8.6579077e-12,1.1922028e-13
322.19000,8.4619922e-12,1.1678376e-13
322.20000,8.2776546e-12,1.1485247e-13
322.21000,8.1451208e-12,1.1397776e-13
322.22000,8.0986954e-12,1.1451333e-13
322.23000,8.1130429e-12,1.1522307e-13
322.24000,8.1808465e-12,1.1509729e-13
322.25000,8.2857346e-12,1.1553206e-13
322.26000,8.4132585e-12,1.1733914e-13
322.27000,8.5963402e-12,1.1924176e-13
322.28000,8.8072834e-12,1.2078850e-13
322.29000,8.9791136e-12,1.2233299e-13
322.30000,9.0786007e-12,1.2295481e-13
322.31000,9.1209548e-12,1.2291793e-13
322.32000,9.1339078e-12,1.2282129e-13
322.33000,9.1673471e-12,1.2304040e-13
322.34000,9.2517568e-12,1.2379213e-13
322.35000,9.3682393e-12,1.2483006e-13
322.36000,9.4840543e-12,1.2598907e-13
322.37000,9.5918921e-12,1.2695302e-13
322.38000,9.6920006e-12,1.2781298e-13
322.39000,9.7883007e-12,1.2886519e-13
322.40000,9.8557425e-12,1.2964865e-13
322.41000,9.8660426e-12,1.2983775e-13
322.42000,9.8096968e-12,1.2950125e-13
322.43000,9.7147276e-12,1.2866534e-13
322.44000,9.6351606e-12,1.2773385e-13
322.45000,9.5385876e-12,1.2693636e-13
322.46000,9.3482826e-12,1.2568028e-13
322.47000,9.1092440e-12,1.2406296e-13
322.48000,8.8856386e-12,1.2248195e-13
322.49000,8.6849055e-12,1.2090604e-13
322.50000,8.5623177e-12,1.1974369e-13
322.51000,8.5494227e-12,1.1948073e-13
322.52000,8.5662551e-12,1.1962284e-13
322.53000,8.5828240e-12,1.1965290e-13
322.54000,8.5831456e-12,1.1951392e-13
322.55000,8.5204422e-12,1.1920951e-13
322.56000,8.4170424e-12,1.1860630e-13
322.57000,8.3171250e-12,1.1784476e-13
322.58000,8.2383524e-12,1.1731322e-13
322.59000,8.2199626e-12,1.1721228e-13
322.60000,8.2462405e-12,1.1733116e-13
322.61000,8.2432141e-12,1.1723900e-13
322.62000,8.2393556e-12,1.1703710e-13
322.63000,8.2744791e-12,1.1709086e-13
322.64000,8.2990248e-12,1.1739450e-13
322.65000,8.2733402e-12,1.1750019e-13
322.66000,8.2402264e-12,1.1734513e-13
322.67000,8.1766639e-12,1.1684850e-13
322.68000,8.0451798e-12,1.1569780e-13
322.69000,7.8773792e-12,1.1406824e-13
322.70000,7.6694655e-12,1.1223665e-13
322.71000,7.4265989e-12,1.1038360e-13
322.72000,7.1843619e-12,1.0865562e-13
322.73000,6.9621153e-12,1.0713018e-13
322.74000,6.7723739e-12,1.0575824e-13
322.75000,6.6109793e-12,1.0458471e-13
322.76000,6.4891457e-12,1.0385062e-13
322.77000,6.4068053e-12,1.0317785e-13
322.78000,6.3492177e-12,1.0237747e-13
322.79000,6.2604371e-12,1.0143862e-13
322.80000,6.0935926e-12,9.9990437e-14
322.81000,5.8984049e-12,9.8303813e-14
322.82000,5.7005743e-12,9.6696283e-14
322.83000,5.5122081e-12,9.5193925e-14
322.84000,5.4040563e-12,9.4234975e-14
322.85000,5.4040056e-12,9.4048785e-14
322.86000,5.4657584e-12,9.4344356e-14
322.87000,5.5538419e-12,9.4924997e-14
322.88000,5.6287608e-12,9.5618513e-14
322.89000,5.6600269e-12,9.6057501e-14
322.90000,5.6436621e-12,9.6042907e-14
322.91000,5.6172478e-12,9.5811777e-14
322.92000,5.6575938e-12,9.6039477e-14
322.93000,5.7786828e-12,9.6773291e-14
322.94000,5.9522557e-12,9.7837969e-14
322.95000,6.1753004e-12,9.9387914e-14
322.96000,6.4264072e-12,1.0119794e-13
322.97000,6.6486836e-12,1.0293314e-13
322.98000,6.8318780e-12,1.0440615e-13
322.99000,7.0032343e-12,1.0580214e-13
323.00000,7.2033668e-12,1.0768375e-13
323.01000,7.4413060e-12,1.0961074e-13
323.02000,7.6617669e-12,1.1097784e-13
323.03000,7.7992175e-12,1.1187643e-13
323.04000,7.8722000e-12,1.1228107e-13
323.05000,7.9462923e-12,1.1233207e-13
323.06000,8.0135601e-12,1.1254962e-13
323.07000,8.0651001e-12,1.1326393e-13
323.08000,8.1304592e-12,1.1417695e-13
323.09000,8.2030921e-12,1.1464110e-13
323.10000,8.2243866e-12,1.1456081e-13
323.11000,8.1799723e-12,1.1416511e-13
323.12000,8.1021014e-12,1.1366621e-13
323.13000,8.0294520e-12,1.1352026e-13
323.14000,7.9924111e-12,1.1336652e-13
323.15000,7.9742244e-12,1.1263645e-13
323.16000,7.9544467e-12,1.1166987e-13
323.17000,7.9122503e-12,1.1087832e-13
323.18000,7.8237083e-12,1.1012478e-13
323.19000,7.7211280e-12,1.0925481e-13
323.20000,7.6750639e-12,1.0850320e-13
323.21000,7.7227367e-12,1.0845094e-13
323.22000,7.8302198e-12,1.0908985e-13
323.23000,7.9147319e-12,1.0980478e-13
323.24000,7.9750564e-12,1.1056353e-13
323.25000,8.0612001e-12,1.1151782e-13
323.26000,8.1363921e-12,1.1226342e-13
323.27000,8.1666664e-12,1.1257389e-13
323.28000,8.1760291e-12,1.1242632e-13
323.29000,8.1674215e-12,1.1181321e-13
323.30000,8.1353742e-12,1.1122630e-13
323.31000,8.0785210e-12,1.1116449e-13
323.32000,7.9903655e-12,1.1117478e-13
323.33000,7.8642633e-12,1.1018754e-13
323.34000,7.7023715e-12,1.0821653e-13
323.35000,7.5139025e-12,1.0625381e-13
323.36000,7.3263796e-12,1.0470707e-13
323.37000,7.1591356e-12,1.0348318e-13
323.38000,7.0506341e-12,1.0258309e-13
323.39000,7.0186870e-12,1.0178779e-13
323.40000,7.0221749e-12,1.0130921e-13
323.41000,7.0130068e-12,1.0127864e-13
323.42000,6.9761288e-12,1.0128315e-13
323.43000,6.9492750e-12,1.0102089e-13
323.44000,6.9884290e-12,1.0116775e-13
323.45000,7.1027636e-12,1.0204839e-13
323.46000,7.2831776e-12,1.0315785e-13
323.47000,7.5122230e-12,1.0460530e-13
323.48000,7.7484758e-12,1.0639767e-13
323.49000,7.9615320e-12,1.0775174e-13
323.50000,8.1303564e-12,1.0870266e-13
323.51000,8.2619882e-12,1.0954041e-13
323.52000,8.3375288e-12,1.0989987e-13
323.53000,8.3563721e-12,1.0991999e-13
323.54000,8.3623122e-12,1.0976801e-13
323.55000,8.3513783e-12,1.0948173e-13
323.56000,8.2759609e-12,1.0868976e-13
323.57000,8.1256018e-12,1.0743072e-13
323.58000,7.9728901e-12,1.0624552e-13
323.59000,7.8541063e-12,1.0518460e-13
323.60000,7.7151670e-12,1.0378606e-13
323.61000,7.5405703e-12,1.0216941e-13
323.62000,7.3680354e-12,1.0073102e-13
323.63000,7.2350852e-12,9.9667162e-14
323.64000,7.1655654e-12,9.8977408e-14
323.65000,7.1539441e-12,9.8715471e-14
323.66000,7.1760811e-12,9.8894577e-14
323.67000,7.2011588e-12,9.9051036e-14
323.68000,7.2658902e-12,9.9321445e-14
323.69000,7.4421409e-12,1.0048589e-13
323.70000,7.7103815e-12,1.0240797e-13
323.71000,8.0075368e-12,1.0460830e-13
323.72000,8.3074027e-12,1.0702522e-13
323.73000,8.6049297e-12,1.0953751e-13
323.74000,8.9010590e-12,1.1184999e-13
323.75000,9.1474761e-12,1.1361139e-13
323.76000,9.2953968e-12,1.1467055e-13
323.77000,9.3341183e-12,1.1491331e-13
323.78000,9.2625658e-12,1.1419247e-13
323.79000,9.1051875e-12,1.1280569e-13
323.80000,8.9011043e-12,1.1118898e-13
323.81000,8.6658961e-12,1.0941573e-13
323.82000,8.4003421e-12,1.0746839e-13
323.83000,8.1496369e-12,1.0572535e-13
323.84000,7.9219217e-12,1.0417183e-13
323.85000,7.6742298e-12,1.0238806e-13
323.86000,7.4399833e-12,1.0056813e-13
323.87000,7.2709297e-12,9.9264714e-14
323.88000,7.1727445e-12,9.8605382e-14
323.89000,7.1132441e-12,9.8169634e-14
323.90000,7.0474899e-12,9.7694668e-14
323.91000,7.0155296e-12,9.7720672e-14
323.92000,7.0367965e-12,9.8228629e-14
323.93000,7.0859764e-12,9.8753137e-14
323.94000,7.1790966e-12,9.9453260e-14
323.95000,7.3573830e-12,1.0073274e-13
323.96000,7.6094935e-12,1.0249325e-13
323.97000,7.8993295e-12,1.0453790e-13
323.98000,8.1875497e-12,1.0665524e-13
323.99000,8.4602463e-12,1.0859506e-13
324.00000,8.7598870e-12,1.1068464e-13
324.01000,9.0930454e-12,1.1331076e-13
324.02000,9.3999690e-12,1.1583016e-13
324.03000,9.6600344e-12,1.1770196e-13
324.04000,9.8944411e-12,1.1926221e-13
324.05000,1.0088338e-11,1.2066506e-13
324.06000,1.0178849e-11,1.2131135e-13
324.07000,1.0130922e-11,1.2082165e-13
324.08000,9.9897443e-12,1.1971201e-13
324.09000,9.7665580e-12,1.1809333e-13
324.10000,9.4728439e-12,1.1584739e-13
324.11000,9.1392831e-12,1.1322652e-13
324.12000,8.8540634e-12,1.1101334e-13
324.13000,8.6622909e-12,1.0936324e-13
324.14000,8.5436096e-12,1.0820085e-13
324.15000,8.4856621e-12,1.0764191e-13
324.16000,8.4726699e-12,1.0748228e-13
324.17000,8.4366419e-12,1.0717086e-13
324.18000,8.3458763e-12,1.0657692e-13
324.19000,8.2916254e-12,1.0612169e-13
324.20000,8.3132721e-12,1.0590891e-13
324.21000,8.3236714e-12,1.0564810e-13
324.22000,8.2788717e-12,1.0519173e-13
324.23000,8.2452146e-12,1.0488616e-13
324.24000,8.2746482e-12,1.0499780e-13
324.25000,8.3419992e-12,1.0544736e-13
324.26000,8.4415916e-12,1.0595915e-13
324.27000,8.5950762e-12,1.0674116e-13
324.28000,8.7809056e-12,1.0758753e-13
324.29000,8.9633431e-12,1.0865644e-13
324.30000,9.0961044e-12,1.0944163e-13
324.31000,9.1743693e-12,1.0955010e-13
324.32000,9.2270188e-12,1.1026140e-13
324.33000,9.2704406e-12,1.1084911e-13
324.34000,9.2907007e-12,1.1017726e-13
324.35000,9.2882111e-12,1.0987844e-13
324.36000,9.2939340e-12,1.1098220e-13
324.37000,9.3498939e-12,1.1213468e-13
324.38000,9.4614788e-12,1.1215958e-13
324.39000,9.6029612e-12,1.1180407e-13
324.40000,9.7528511e-12,1.1188703e-13
324.41000,9.8971398e-12,1.1250124e-13
324.42000,1.0016966e-11,1.1350032e-13
324.43000,1.0134187e-11,1.1457625e-13
324.44000,1.0270362e-11,1.1553442e-13
324.45000,1.0419907e-11,1.1651016e-13
324.46000,1.0583318e-11,1.1760311e-13
324.47000,1.0722656e-11,1.1848852e-13
324.48000,1.0808186e-11,1.1922074e-13
324.49000,1.0848613e-11,1.2020893e-13
324.50000,1.0876173e-11,1.2142644e-13
324.51000,1.0927965e-11,1.2231285e-13
324.52000,1.0942821e-11,1.2203721e-13
324.53000,1.0875135e-11,1.2108622e-13
324.54000,1.0827491e-11,1.2105698e-13
324.55000,1.0831005e-11,1.2180149e-13
324.56000,1.0791077e-11,1.2158536e-13
324.57000,1.0695235e-11,1.2112248e-13
324.58000,1.0585996e-11,1.2102669e-13
324.59000,1.0481164e-11,1.2065503e-13
324.60000,1.0346411e-11,1.2004982e-13
324.61000,1.0162803e-11,1.1907215e-13
324.62000,9.9390208e-12,1.1760675e-13
324.63000,9.7015270e-12,1.1581277e-13
324.64000,9.4579474e-12,1.1400949e-13
324.65000,9.2037188e-12,1.1250788e-13
324.66000,8.9642111e-12,1.1115637e-13
324.67000,8.7980438e-12,1.1009837e-13
324.68000,8.7021152e-12,1.0951295e-13
324.69000,8.6043996e-12,1.0894118e-13
324.70000,8.4958835e-12,1.0819684e-13
324.71000,8.3658769e-12,1.0732495e-13
324.72000,8.2070170e-12,1.0626987e-13
324.73000,8.0505534e-12,1.0517108e-13
324.74000,7.8818829e-12,1.0401896e-13
324.75000,7.6800275e-12,1.0265919e-13
324.76000,7.5050603e-12,1.0147428e-13
324.77000,7.4101783e-12,1.0101605e-13
324.78000,7.3935813e-12,1.0122367e-13
324.79000,7.4417056e-12,1.0173569e-13
324.80000,7.5243569e-12,1.0230703e-13
324.81000,7.6086015e-12,1.0286999e-13
324.82000,7.6706032e-12,1.0341834e-13
324.83000,7.7019128e-12,1.0385325e-13
324.84000,7.6950544e-12,1.0380401e-13
324.85000,7.6638031e-12,1.0332936e-13
324.86000,7.6408781e-12,1.0308606e-13
324.87000,7.5906616e-12,1.0294124e-13
324.88000,7.5253924e-12,1.0265161e-13
324.89000,7.5469636e-12,1.0280980e-13
324.90000,7.6646496e-12,1.0370880e-13
324.91000,7.8074149e-12,1.0482249e-13
324.92000,7.9585780e-12,1.0580420e-13
324.93000,8.1190496e-12,1.0681790e-13
324.94000,8.2802691e-12,1.0799705e-13
324.95000,8.4304277e-12,1.0924687e-13
324.96000,8.5453233e-12,1.1032152e-13
324.97000,8.6235275e-12,1.1116676e-13
324.98000,8.6654621e-12,1.1190248e-13
324.99000,8.6673399e-12,1.1242374e-13
325.00000,8.6589819e-12,1.1263515e-13
325.01000,8.6834037e-12,1.1283533e-13
325.02000,8.7241296e-12,1.1335589e-13
325.03000,8.7987237e-12,1.1399222e-13
325.04000,8.9170921e-12,1.1402304e-13
325.05000,8.9943933e-12,1.1353502e-13
325.06000,8.9598812e-12,1.1295703e-13
325.07000,8.8436593e-12,1.1221962e-13
325.08000,8.7231040e-12,1.1144116e-13
325.09000,8.6250829e-12,1.1070723e-13
325.10000,8.5370396e-12,1.1006115e-13
325.11000,8.4501097e-12,1.0940148e-13
325.12000,8.4097751e-12,1.0884558e-13
325.13000,8.4202597e-12,1.0853451e-13
325.14000,8.4273435e-12,1.0841096e-13
325.15000,8.4510605e-12,1.0860601e-13
325.16000,8.5088989e-12,1.0900488e-13
325.17000,8.5043076e-12,1.0890642e-13
325.18000,8.3819398e-12,1.0799172e-13
325.19000,8.2186841e-12,1.0676331e-13
325.20000,8.1118049e-12,1.0580430e-13
325.21000,8.0944469e-12,1.0533184e-13
325.22000,8.1217119e-12,1.0530223e-13
325.23000,8.1531193e-12,1.0555531e-13
325.24000,8.2000456e-12,1.0600254e-13
