wave,flux,fluxerr
320.00000,2.2980207e-11,2.7130064e-13
320.01000,2.2919165e-11,2.6955331e-13
320.02000,2.2845321e-11,2.6997184e-13
320.03000,2.2793742e-11,2.6966983e-13
320.04000,2.2771920e-11,2.6805999e-13
320.05000,2.2754450e-11,2.6806052e-13
320.06000,2.2772320e-11,2.6854624e-13
320.07000,2.2835735e-11,2.6876339e-13
320.08000,2.2925724e-11,2.7045411e-13
320.09000,2.2972806e-11,2.7170423e-13
320.10000,2.2981036e-11,2.7222423e-13
320.11000,2.2992932e-11,2.7272980e-13
320.12000,2.3028845e-11,2.7353582e-13
320.13000,2.3068616e-11,2.7398570e-13
320.14000,2.3041701e-11,2.7370679e-13
320.15000,2.2953123e-11,2.7289995e-13
320.16000,2.2852580e-11,2.7194321e-13
320.17000,2.2763676e-11,2.7075493e-13
320.18000,2.2708733e-11,2.6993073e-13
320.19000,2.2682743e-11,2.6989037e-13
320.20000,2.2637383e-11,2.6974516e-13
320.21000,2.2532481e-11,2.6909990e-13
320.22000,2.2388099e-11,2.6811043e-13
320.23000,2.2286940e-11,2.6700330e-13
320.24000,2.2202648e-11,2.6555928e-13
320.25000,2.2094818e-11,2.6378674e-13
320.26000,2.1977985e-11,2.6218188e-13
320.27000,2.1875616e-11,2.6117324e-13
320.28000,2.1825209e-11,2.6117671e-13
320.29000,2.1819257e-11,2.6187242e-13
320.30000,2.1783897e-11,2.6176335e-13
320.31000,2.1792430e-11,2.6120677e-13
320.32000,2.1874361e-11,2.6114466e-13
320.33000,2.1954474e-11,2.6134489e-13
320.34000,2.2060815e-11,2.6230911e-13
320.35000,2.2237720e-11,2.6429933e-13
320.36000,2.2461353e-11,2.6647962e-13
320.37000,2.2655250e-11,2.6789822e-13
320.38000,2.2749298e-11,2.6847632e-13
320.39000,2.2794477e-11,2.6878644e-13
320.40000,2.2845346e-11,2.6909192e-13
320.41000,2.2883418e-11,2.6991103e-13
320.42000,2.2877145e-11,2.7054798e-13
320.43000,2.2888402e-11,2.7056309e-13
320.44000,2.2960805e-11,2.7070642e-13
320.45000,2.3055619e-11,2.7092753e-13
320.46000,2.3071595e-11,2.7049429e-13
320.47000,2.3032518e-11,2.7023585e-13
320.48000,2.3053195e-11,2.7119981e-13
320.49000,2.3079098e-11,2.7230655e-13
320.50000,2.3050905e-11,2.7244038e-13
320.51000,2.3003397e-11,2.7179655e-13
320.52000,2.3003279e-11,2.7108160e-13
320.53000,2.3026948e-11,2.7071690e-13
320.54000,2.3027760e-11,2.7100151e-13
320.55000,2.3009155e-11,2.7134240e-13
320.56000,2.2994253e-11,2.7132765e-13
320.57000,2.2981338e-11,2.7143013e-13
320.58000,2.2946148e-11,2.7148542e-13
320.59000,2.2915673e-11,2.7112811e-13
320.60000,2.2909611e-11,2.7083299e-13
320.61000,2.2925650e-11,2.7104835e-13
320.62000,2.2969840e-11,2.7181022e-13
320.63000,2.3004598e-11,2.7278637e-13
320.64000,2.2996701e-11,2.7343420e-13
320.65000,2.2973472e-11,2.7368650e-13
320.66000,2.2919241e-11,2.7306562e-13
320.67000,2.2826003e-11,2.7207958e-13
320.68000,2.2778050e-11,2.7142993e-13
320.69000,2.2779075e-11,2.7134763e-13
320.70000,2.2840167e-11,2.7229963e-13
320.71000,2.2941384e-11,2.7331338e-13
320.72000,2.2986066e-11,2.7399572e-13
320.73000,2.2972318e-11,2.7446378e-13
320.74000,2.2984514e-11,2.7433230e-13
320.75000,2.3012622e-11,2.7418212e-13
320.76000,2.3017990e-11,2.7462903e-13
320.77000,2.3064604e-11,2.7496453e-13
320.78000,2.3156002e-11,2.7504609e-13
320.79000,2.3144377e-11,2.7478746e-13
320.80000,2.3054340e-11,2.7380569e-13
320.81000,2.3002007e-11,2.7222807e-13
320.82000,2.2978372e-11,2.7117607e-13
320.83000,2.2930693e-11,2.7079979e-13
320.84000,2.2883964e-11,2.7153809e-13
320.85000,2.2869687e-11,2.7243611e-13
320.86000,2.2859252e-11,2.7098423e-13
320.87000,2.2866004e-11,2.6863348e-13
320.88000,2.2833825e-11,2.6731686e-13
320.89000,2.2765180e-11,2.6638540e-13
320.90000,2.2754958e-11,2.6558959e-13
320.91000,2.2760748e-11,2.6529067e-13
320.92000,2.2767507e-11,2.6560467e-13
320.93000,2.2793568e-11,2.6651143e-13
320.94000,2.2767179e-11,2.6728706e-13
320.95000,2.2739086e-11,2.6779620e-13
320.96000,2.2763627e-11,2.6813838e-13
320.97000,2.2748755e-11,2.6797565e-13
320.98000,2.2685621e-11,2.6712760e-13
320.99000,2.2642173e-11,2.6583349e-13
321.00000,2.2573756e-11,2.6412098e-13
321.01000,2.2514546e-11,2.6261572e-13
321.02000,2.2540252e-11,2.6220669e-13
321.03000,2.2577711e-11,2.6241551e-13
321.04000,2.2551042e-11,2.6223642e-13
321.05000,2.2507175e-11,2.6178724e-13
321.06000,2.2506397e-11,2.6203468e-13
321.07000,2.2564616e-11,2.6333433e-13
321.08000,2.2657994e-11,2.6410881e-13
321.09000,2.2736170e-11,2.6320408e-13
321.10000,2.2763142e-11,2.6176316e-13
321.11000,2.2753128e-11,2.6106568e-13
321.12000,2.2768624e-11,2.6214478e-13
321.13000,2.2794034e-11,2.6339622e-13
321.14000,2.2747289e-11,2.6237441e-13
321.15000,2.2692429e-11,2.6115349e-13
321.16000,2.2749275e-11,2.6157554e-13
321.17000,2.2848906e-11,2.6195006e-13
321.18000,2.2906779e-11,2.6141552e-13
321.19000,2.2937356e-11,2.6141563e-13
321.20000,2.2954515e-11,2.6173079e-13
321.21000,2.2967585e-11,2.6208299e-13
321.22000,2.2943380e-11,2.6277750e-13
321.23000,2.2932765e-11,2.6308015e-13
321.24000,2.3031546e-11,2.6358765e-13
321.25000,2.3142584e-11,2.6418758e-13
321.26000,2.3107542e-11,2.6331291e-13
321.27000,2.2996754e-11,2.6204660e-13
321.28000,2.2994571e-11,2.6197478e-13
321.29000,2.3044805e-11,2.6251313e-13
321.30000,2.3012075e-11,2.6192087e-13
321.31000,2.2969969e-11,2.6081146e-13
321.32000,2.2929188e-11,2.5981074e-13
321.33000,2.2830265e-11,2.5881113e-13
321.34000,2.2749106e-11,2.5835036e-13
321.35000,2.2743009e-11,2.5853474e-13
321.36000,2.2696584e-11,2.5840623e-13
321.37000,2.2555316e-11,2.5753469e-13
321.38000,2.2433126e-11,2.5602937e-13
321.39000,2.2386737e-11,2.5442654e-13
321.40000,2.2385062e-11,2.5336446e-13
321.41000,2.2421410e-11,2.5288428e-13
321.42000,2.2472590e-11,2.5279326e-13
321.43000,2.2547083e-11,2.5362958e-13
321.44000,2.2654416e-11,2.5551901e-13
321.45000,2.2735001e-11,2.5761304e-13
321.46000,2.2756669e-11,2.5859235e-13
321.47000,2.2754873e-11,2.5697705e-13
321.48000,2.2753422e-11,2.5481612e-13
321.49000,2.2745800e-11,2.5334520e-13
321.50000,2.2811536e-11,2.5274210e-13
321.51000,2.2932920e-11,2.5301952e-13
321.52000,2.2982500e-11,2.5324466e-13
321.53000,2.2955447e-11,2.5303873e-13
321.54000,2.2954177e-11,2.5320916e-13
321.55000,2.2980704e-11,2.5367160e-13
321.56000,2.2982431e-11,2.5335619e-13
321.57000,2.3000839e-11,2.5263263e-13
321.58000,2.3035977e-11,2.5209488e-13
321.59000,2.3046515e-11,2.5174795e-13
321.60000,2.3079642e-11,2.5201157e-13
321.61000,2.3156987e-11,2.5291476e-13
321.62000,2.3204864e-11,2.5384065e-13
321.63000,2.3191428e-11,2.5438712e-13
321.64000,2.3183849e-11,2.5463552e-13
321.65000,2.3206585e-11,2.5468120e-13
321.66000,2.3218386e-11,2.5477675e-13
321.67000,2.3202505e-11,2.5507303e-13
321.68000,2.3175047e-11,2.5513638e-13
321.69000,2.3124766e-11,2.5484091e-13
321.70000,2.3044504e-11,2.5432663e-13
321.71000,2.2982012e-11,2.5362453e-13
321.72000,2.2925171e-11,2.5263942e-13
321.73000,2.2813002e-11,2.5155317e-13
321.74000,2.2670556e-11,2.5104321e-13
321.75000,2.2446106e-11,2.5045581e-13
321.76000,2.2206297e-11,2.4960512e-13
321.77000,2.2106772e-11,2.4934764e-13
321.78000,2.2083278e-11,2.4936646e-13
321.79000,2.2040409e-11,2.4881149e-13
321.80000,2.2011794e-11,2.4792149e-13
321.81000,2.2062942e-11,2.4807662e-13
321.82000,2.2142350e-11,2.4901201e-13
321.83000,2.2258868e-11,2.5002040e-13
321.84000,2.2467710e-11,2.5180852e-13
321.85000,2.2712701e-11,2.5423070e-13
321.86000,2.2947422e-11,2.5637582e-13
321.87000,2.3147491e-11,2.5779009e-13
321.88000,2.3252674e-11,2.5866293e-13
321.89000,2.3290165e-11,2.5946262e-13
321.90000,2.3296471e-11,2.6000646e-13
321.91000,2.3316442e-11,2.6054270e-13
321.92000,2.3359876e-11,2.6150154e-13
321.93000,2.3351775e-11,2.6181231e-13
321.94000,2.3269797e-11,2.6057672e-13
321.95000,2.3136357e-11,2.5896397e-13
321.96000,2.3077014e-11,2.5849225e-13
321.97000,2.3125575e-11,2.5875441e-13
321.98000,2.3155322e-11,2.5867600e-13
321.99000,2.3116621e-11,2.5817791e-13
322.00000,2.3109366e-11,2.5782938e-13
322.01000,2.3107995e-11,2.5728268e-13
322.02000,2.3051160e-11,2.5599216e-13
322.03000,2.3016976e-11,2.5558123e-13
322.04000,2.3006336e-11,2.5454698e-13
322.05000,2.2962578e-11,2.5387303e-13
322.06000,2.2934636e-11,2.5475099e-13
322.07000,2.2940064e-11,2.5396658e-13
322.08000,2.2953056e-11,2.5234904e-13
322.09000,2.3032591e-11,2.5362745e-13
322.10000,2.3095683e-11,2.5527767e-13
322.11000,2.3056895e-11,2.5330463e-13
322.12000,2.3011078e-11,2.4996762e-13
322.13000,2.2976485e-11,2.4827638e-13
322.14000,2.2930020e-11,2.4771385e-13
322.15000,2.2895709e-11,2.4754776e-13
322.16000,2.2910198e-11,2.4805656e-13
322.17000,2.2950521e-11,2.4846499e-13
322.18000,2.2972448e-11,2.4792477e-13
322.19000,2.2971292e-11,2.4700667e-13
322.20000,2.2978231e-11,2.4663171e-13
322.21000,2.3005592e-11,2.4676597e-13
322.22000,2.3047432e-11,2.4711403e-13
322.23000,2.3060173e-11,2.4799095e-13
322.24000,2.3056263e-11,2.5034051e-13
322.25000,2.3115220e-11,2.5334569e-13
322.26000,2.3153062e-11,2.5345051e-13
322.27000,2.3104988e-11,2.5081992e-13
322.28000,2.3097224e-11,2.4993879e-13
322.29000,2.3141301e-11,2.5161371e-13
322.30000,2.3160631e-11,2.5248802e-13
322.31000,2.3149532e-11,2.5259672e-13
322.32000,2.3129021e-11,2.5359505e-13
322.33000,2.3090550e-11,2.5360771e-13
322.34000,2.3058246e-11,2.5312913e-13
322.35000,2.3052475e-11,2.5268723e-13
322.36000,2.3074517e-11,2.5195338e-13
322.37000,2.3102414e-11,2.5199953e-13
322.38000,2.3122318e-11,2.5237045e-13
322.39000,2.3142553e-11,2.5260921e-13
322.40000,2.3154936e-11,2.5299028e-13
322.41000,2.3106766e-11,2.5323472e-13
322.42000,2.3006175e-11,2.5277813e-13
322.43000,2.2915033e-11,2.5240470e-13
322.44000,2.2890570e-11,2.5289866e-13
322.45000,2.2954889e-11,2.5401077e-13
322.46000,2.3023727e-11,2.5462521e-13
322.47000,2.3054735e-11,2.5434370e-13
322.48000,2.3112908e-11,2.5414685e-13
322.49000,2.3165018e-11,2.5425787e-13
322.50000,2.3207800e-11,2.5477096e-13
322.51000,2.3278962e-11,2.5569073e-13
322.52000,2.3319891e-11,2.5625294e-13
322.53000,2.3314619e-11,2.5656321e-13
322.54000,2.3265350e-11,2.5648201e-13
322.55000,2.3196569e-11,2.5556726e-13
322.56000,2.3143305e-11,2.5440774e-13
322.57000,2.3110318e-11,2.5370076e-13
322.58000,2.3079446e-11,2.5334599e-13
322.59000,2.3027337e-11,2.5308143e-13
322.60000,2.2991340e-11,2.5342387e-13
322.61000,2.2977331e-11,2.5422754e-13
322.62000,2.2967524e-11,2.5447147e-13
322.63000,2.2970262e-11,2.5423090e-13
322.64000,2.2928028e-11,2.5370379e-13
322.65000,2.2841609e-11,2.5284806e-13
322.66000,2.2827212e-11,2.5238752e-13
322.67000,2.2902701e-11,2.5277528e-13
322.68000,2.2960186e-11,2.5333312e-13
322.69000,2.2952193e-11,2.5340437e-13
322.70000,2.2919988e-11,2.5331505e-13
322.71000,2.2909826e-11,2.5351983e-13
322.72000,2.2890069e-11,2.5318626e-13
322.73000,2.2851404e-11,2.5221296e-13
322.74000,2.2878970e-11,2.5206924e-13
322.75000,2.2933130e-11,2.5271910e-13
322.76000,2.2954687e-11,2.5341292e-13
322.77000,2.2953433e-11,2.5403188e-13
322.78000,2.3003499e-11,2.5502938e-13
322.79000,2.3056986e-11,2.5625708e-13
322.80000,2.3031077e-11,2.5685454e-13
322.81000,2.2988265e-11,2.5637643e-13
322.82000,2.2991442e-11,2.5577449e-13
322.83000,2.3033181e-11,2.5589101e-13
322.84000,2.3031838e-11,2.5562337e-13
322.85000,2.2999066e-11,2.5505874e-13
322.86000,2.2954397e-11,2.5501277e-13
322.87000,2.2813951e-11,2.5455017e-13
322.88000,2.2626458e-11,2.5326408e-13
322.89000,2.2423933e-11,2.5130655e-13
322.90000,2.2132785e-11,2.4837803e-13
322.91000,2.1876819e-11,2.4590804e-13
322.92000,2.1865361e-11,2.4579610e-13
322.93000,2.2044748e-11,2.4759325e-13
322.94000,2.2142838e-11,2.4877105e-13
322.95000,2.2039298e-11,2.4826221e-13
322.96000,2.1907440e-11,2.4709596e-13
322.97000,2.1878150e-11,2.4631611e-13
322.98000,2.1860587e-11,2.4523327e-13
322.99000,2.1848728e-11,2.4445650e-13
323.00000,2.1929673e-11,2.4454284e-13
323.01000,2.2056018e-11,2.4498120e-13
323.02000,2.2137187e-11,2.4589098e-13
323.03000,2.2192744e-11,2.4614925e-13
323.04000,2.2298615e-11,2.4624810e-13
323.05000,2.2423554e-11,2.4735302e-13
323.06000,2.2520398e-11,2.4836707e-13
323.07000,2.2589041e-11,2.4838521e-13
323.08000,2.2598768e-11,2.4792662e-13
323.09000,2.2605813e-11,2.4758799e-13
323.10000,2.2674512e-11,2.4712846e-13
323.11000,2.2753955e-11,2.4686445e-13
323.12000,2.2734709e-11,2.4722485e-13
323.13000,2.2653906e-11,2.4799775e-13
323.14000,2.2624169e-11,2.4890580e-13
323.15000,2.2616090e-11,2.4851720e-13
323.16000,2.2562898e-11,2.4687485e-13
323.17000,2.2488221e-11,2.4554876e-13
323.18000,2.2461066e-11,2.4484752e-13
323.19000,2.2430957e-11,2.4414082e-13
323.20000,2.2380480e-11,2.4394457e-13
323.21000,2.2367365e-11,2.4476406e-13
323.22000,2.2365214e-11,2.4590227e-13
323.23000,2.2353785e-11,2.4624847e-13
323.24000,2.2376320e-11,2.4565657e-13
323.25000,2.2443505e-11,2.4493359e-13
323.26000,2.2496838e-11,2.4444840e-13
323.27000,2.2505369e-11,2.4438129e-13
323.28000,2.2519771e-11,2.4531395e-13
323.29000,2.2570604e-11,2.4692033e-13
323.30000,2.2598007e-11,2.4785647e-13
323.31000,2.2553542e-11,2.4695013e-13
323.32000,2.2543454e-11,2.4491476e-13
323.33000,2.2635122e-11,2.4305141e-13
323.34000,2.2697570e-11,2.4163535e-13
323.35000,2.2683274e-11,2.4103869e-13
323.36000,2.2627904e-11,2.4075593e-13
323.37000,2.2578787e-11,2.4069676e-13
323.38000,2.2642941e-11,2.4225616e-13
323.39000,2.2758564e-11,2.4384996e-13
323.40000,2.2776081e-11,2.4282939e-13
323.41000,2.2818317e-11,2.4125599e-13
323.42000,2.2902357e-11,2.4089774e-13
323.43000,2.2926811e-11,2.4139399e-13
323.44000,2.2962237e-11,2.4161567e-13
323.45000,2.3030126e-11,2.4118383e-13
323.46000,2.3086083e-11,2.4156838e-13
323.47000,2.3143890e-11,2.4269146e-13
323.48000,2.3169054e-11,2.4263168e-13
323.49000,2.3158177e-11,2.4190637e-13
323.50000,2.3138343e-11,2.4153856e-13
323.51000,2.3103341e-11,2.4071667e-13
323.52000,2.3077960e-11,2.3994510e-13
323.53000,2.3069175e-11,2.3944090e-13
323.54000,2.3071139e-11,2.3873468e-13
323.55000,2.3109419e-11,2.3890878e-13
323.56000,2.3121913e-11,2.3899739e-13
323.57000,2.3088430e-11,2.3824511e-13
323.58000,2.3094274e-11,2.3764539e-13
323.59000,2.3151729e-11,2.3758154e-13
323.60000,2.3149677e-11,2.3728789e-13
323.61000,2.3098630e-11,2.3646640e-13
323.62000,2.3074252e-11,2.3595936e-13
323.63000,2.3085011e-11,2.3582588e-13
323.64000,2.3115964e-11,2.3560838e-13
323.65000,2.3087559e-11,2.3476742e-13
323.66000,2.2969696e-11,2.3350914e-13
323.67000,2.2889098e-11,2.3289729e-13
323.68000,2.2931410e-11,2.3302126e-13
323.69000,2.2974012e-11,2.3285675e-13
323.70000,2.2959548e-11,2.3235455e-13
323.71000,2.2983976e-11,2.3215919e-13
323.72000,2.3064372e-11,2.3232588e-13
323.73000,2.3109570e-11,2.3227252e-13
323.74000,2.3111823e-11,2.3219885e-13
323.75000,2.3118506e-11,2.3243792e-13
323.76000,2.3103399e-11,2.3229225e-13
323.77000,2.3052706e-11,2.3191846e-13
323.78000,2.3021689e-11,2.3218331e-13
323.79000,2.3013036e-11,2.3260289e-13
323.80000,2.2992662e-11,2.3233038e-13
323.81000,2.2946312e-11,2.3161048e-13
323.82000,2.2902629e-11,2.3119468e-13
323.83000,2.2882595e-11,2.3111968e-13
323.84000,2.2893497e-11,2.3095364e-13
323.85000,2.2912747e-11,2.3061805e-13
323.86000,2.2945075e-11,2.3082023e-13
323.87000,2.3025976e-11,2.3159360e-13
323.88000,2.3113859e-11,2.3222491e-13
323.89000,2.3191337e-11,2.3294789e-13
323.90000,2.3239210e-11,2.3347651e-13
323.91000,2.3233541e-11,2.3323761e-13
323.92000,2.3194494e-11,2.3279876e-13
323.93000,2.3172972e-11,2.3285549e-13
323.94000,2.3197878e-11,2.3330967e-13
323.95000,2.3242338e-11,2.3393940e-13
323.96000,2.3273033e-11,2.3474177e-13
323.97000,2.3275650e-11,2.3562996e-13
323.98000,2.3301593e-11,2.3621790e-13
323.99000,2.3351158e-11,2.3624535e-13
324.00000,2.3381159e-11,2.3623177e-13
324.01000,2.3340655e-11,2.3599656e-13
324.02000,2.3299641e-11,2.3547623e-13
324.03000,2.3289755e-11,2.3493655e-13
324.04000,2.3260709e-11,2.3444779e-13
324.05000,2.3246315e-11,2.3433903e-13
324.06000,2.3271611e-11,2.3474133e-13
324.07000,2.3244584e-11,2.3494389e-13
324.08000,2.3101760e-11,2.3427406e-13
324.09000,2.2935512e-11,2.3307054e-13
324.10000,2.2846848e-11,2.3224576e-13
324.11000,2.2797178e-11,2.3184982e-13
324.12000,2.2745835e-11,2.3138468e-13
324.13000,2.2718597e-11,2.3084244e-13
324.14000,2.2722198e-11,2.3048025e-13
324.15000,2.2749648e-11,2.3039666e-13
324.16000,2.2659942e-11,2.2954812e-13
324.17000,2.2098817e-11,2.2509394e-13
324.18000,2.1162476e-11,2.1793235e-13
324.19000,2.0761556e-11,2.1475681e-13
324.20000,2.1322379e-11,2.1841827e-13
324.21000,2.2243453e-11,2.2496878e-13
324.22000,2.2830889e-11,2.2947043e-13
324.23000,2.3010013e-11,2.3063390e-13
324.24000,2.3068697e-11,2.3025213e-13
324.25000,2.3075805e-11,2.2950567e-13
324.26000,2.3004551e-11,2.2855443e-13
324.27000,2.2927876e-11,2.2767418e-13
324.28000,2.2866313e-11,2.2711251e-13
324.29000,2.2813385e-11,2.2668745e-13
324.30000,2.2763055e-11,2.2598950e-13
324.31000,2.2720862e-11,2.2477057e-13
324.32000,2.2659271e-11,2.2364706e-13
324.33000,2.2609336e-11,2.2298203e-13
324.34000,2.2593713e-11,2.2170497e-13
324.35000,2.2531186e-11,2.2138675e-13
324.36000,2.2420074e-11,2.2145422e-13
324.37000,2.2336350e-11,2.1986566e-13
324.38000,2.2311693e-11,2.1900466e-13
324.39000,2.2294976e-11,2.2051959e-13
324.40000,2.2255960e-11,2.2135504e-13
324.41000,2.2244880e-11,2.1961167e-13
324.42000,2.2272327e-11,2.1743074e-13
324.43000,2.2331784e-11,2.1681036e-13
324.44000,2.2418733e-11,2.1745963e-13
324.45000,2.2501956e-11,2.1862878e-13
324.46000,2.2593789e-11,2.2036239e-13
324.47000,2.2674763e-11,2.2190051e-13
324.48000,2.2735447e-11,2.2248724e-13
324.49000,2.2771457e-11,2.2239447e-13
324.50000,2.2763184e-11,2.2182029e-13
324.51000,2.2733952e-11,2.2079856e-13
324.52000,2.2725398e-11,2.2003364e-13
324.53000,2.2763548e-11,2.2061898e-13
324.54000,2.2818952e-11,2.2262433e-13
324.55000,2.2845790e-11,2.2451343e-13
324.56000,2.2824455e-11,2.2426446e-13
324.57000,2.2777574e-11,2.2264798e-13
324.58000,2.2754337e-11,2.2259310e-13
324.59000,2.2776169e-11,2.2416593e-13
324.60000,2.2781789e-11,2.2453569e-13
324.61000,2.2831445e-11,2.2473284e-13
324.62000,2.2958435e-11,2.2623079e-13
324.63000,2.3011359e-11,2.2705316e-13
324.64000,2.2990556e-11,2.2756348e-13
324.65000,2.2967234e-11,2.2777122e-13
324.66000,2.2960041e-11,2.2762519e-13
324.67000,2.2959188e-11,2.2744822e-13
324.68000,2.2932606e-11,2.2700137e-13
324.69000,2.2909449e-11,2.2700820e-13
324.70000,2.2870275e-11,2.2736976e-13
324.71000,2.2804913e-11,2.2739968e-13
324.72000,2.2768032e-11,2.2730204e-13
324.73000,2.2692122e-11,2.2707369e-13
324.74000,2.2548988e-11,2.2646354e-13
324.75000,2.2435594e-11,2.2580544e-13
324.76000,2.2378529e-11,2.2538872e-13
324.77000,2.2361994e-11,2.2528180e-13
324.78000,2.2413462e-11,2.2564495e-13
324.79000,2.2489720e-11,2.2613142e-13
324.80000,2.2500449e-11,2.2655131e-13
324.81000,2.2512422e-11,2.2737525e-13
324.82000,2.2569149e-11,2.2834756e-13
324.83000,2.2570298e-11,2.2877390e-13
324.84000,2.2479245e-11,2.2855441e-13
324.85000,2.2413448e-11,2.2828399e-13
324.86000,2.2456684e-11,2.2854376e-13
324.87000,2.2530027e-11,2.2915006e-13
324.88000,2.2537644e-11,2.2925819e-13
324.89000,2.2520876e-11,2.2907115e-13
324.90000,2.2577882e-11,2.2962253e-13
324.91000,2.2660783e-11,2.3026181e-13
324.92000,2.2701966e-11,2.3038901e-13
324.93000,2.2734185e-11,2.3079662e-13
324.94000,2.2734266e-11,2.3130156e-13
324.95000,2.2716064e-11,2.3133019e-13
324.96000,2.2677476e-11,2.3102703e-13
324.97000,2.2633412e-11,2.3075239e-13
324.98000,2.2633499e-11,2.3070617e-13
324.99000,2.2674608e-11,2.3121097e-13
325.00000,2.2669823e-11,2.3158532e-13
325.01000,2.2629844e-11,2.3166550e-13
325.02000,2.2646776e-11,2.3245999e-13
325.03000,2.2661793e-11,2.3339035e-13
325.04000,2.2669286e-11,2.3371157e-13
325.05000,2.2706709e-11,2.3385715e-13
325.06000,2.2710852e-11,2.3425475e-13
325.07000,2.2674778e-11,2.3444765e-13
325.08000,2.2670138e-11,2.3333219e-13
325.09000,2.2734347e-11,2.3179617e-13
325.10000,2.2779090e-11,2.3129452e-13
325.11000,2.2742180e-11,2.3108770e-13
325.12000,2.2701676e-11,2.3075224e-13
325.13000,2.2717199e-11,2.3071648e-13
325.14000,2.2751750e-11,2.3101159e-13
325.15000,2.2746052e-11,2.3113083e-13
325.16000,2.2754375e-11,2.3114162e-13
325.17000,2.2822061e-11,2.3114965e-13
325.18000,2.2845417e-11,2.3077312e-13
325.19000,2.2819111e-11,2.3023617e-13
325.20000,2.2789551e-11,2.2974870e-13
325.21000,2.2745147e-11,2.2928206e-13
325.22000,2.2688877e-11,2.2897247e-13
325.23000,2.2642001e-11,2.2882059e-13
325.24000,2.2657559e-11,2.2879771e-13
