wave,flux,fluxerr
320.00000,2.9396254e-11,2.2009125e-13
320.01000,2.9373685e-11,2.1899146e-13
320.02000,2.9406040e-11,2.1935383e-13
320.03000,2.9442616e-11,2.1964352e-13
320.04000,2.9449755e-11,2.2041111e-13
320.05000,2.9442430e-11,2.2092126e-13
320.06000,2.9407533e-11,2.2096756e-13
320.07000,2.9372071e-11,2.2131744e-13
320.08000,2.9365974e-11,2.2166575e-13
320.09000,2.9311091e-11,2.2147486e-13
320.10000,2.9192333e-11,2.2108277e-13
320.11000,2.9086138e-11,2.2085419e-13
320.12000,2.8982922e-11,2.2028813e-13
320.13000,2.8827592e-11,2.1917503e-13
320.14000,2.8672260e-11,2.1803539e-13
320.15000,2.8541196e-11,2.1704164e-13
320.16000,2.8376898e-11,2.1626052e-13
320.17000,2.8202498e-11,2.1567980e-13
320.18000,2.8075950e-11,2.1490994e-13
320.19000,2.7974939e-11,2.1402599e-13
320.20000,2.7835392e-11,2.1294077e-13
320.21000,2.7723925e-11,2.1169668e-13
320.22000,2.7728067e-11,2.1102481e-13
320.23000,2.7816277e-11,2.1146764e-13
320.24000,2.7933572e-11,2.1261060e-13
320.25000,2.8033098e-11,2.1356694e-13
320.26000,2.8108833e-11,2.1419075e-13
320.27000,2.8226056e-11,2.1480592e-13
320.28000,2.8395409e-11,2.1551275e-13
320.29000,2.8580611e-11,2.1649099e-13
320.30000,2.8782872e-11,2.1767853e-13
320.31000,2.8992366e-11,2.1877869e-13
320.32000,2.9225105e-11,2.2023773e-13
320.33000,2.9473874e-11,2.2202474e-13
320.34000,2.9717778e-11,2.2316911e-13
320.35000,2.9968986e-11,2.2433006e-13
320.36000,3.0220223e-11,2.2605991e-13
320.37000,3.0460175e-11,2.2771937e-13
320.38000,3.0665658e-11,2.2932403e-13
320.39000,3.0843074e-11,2.3123253e-13
320.40000,3.1052002e-11,2.3273698e-13
320.41000,3.1254893e-11,2.3320423e-13
320.42000,3.1392801e-11,2.3346141e-13
320.43000,3.1531183e-11,2.3427965e-13
320.44000,3.1693073e-11,2.3567910e-13
320.45000,3.1797913e-11,2.3712280e-13
320.46000,3.1850328e-11,2.3803634e-13
320.47000,3.1886506e-11,2.3816881e-13
320.48000,3.1869538e-11,2.3782947e-13
320.49000,3.1869449e-11,2.3752866e-13
320.50000,3.1929211e-11,2.3756446e-13
320.51000,3.1948553e-11,2.3766856e-13
320.52000,3.1924507e-11,2.3797502e-13
320.53000,3.1913821e-11,2.3849931e-13
320.54000,3.1907519e-11,2.3870936e-13
320.55000,3.1905844e-11,2.3853428e-13
320.56000,3.1897492e-11,2.3805735e-13
320.57000,3.1870847e-11,2.3783089e-13
320.58000,3.1869014e-11,2.3828354e-13
320.59000,3.1885604e-11,2.3900938e-13
320.60000,3.1923859e-11,2.4006760e-13
320.61000,3.1936208e-11,2.4085517e-13
320.62000,3.1903486e-11,2.4060663e-13
320.63000,3.1875066e-11,2.3998968e-13
320.64000,3.1851916e-11,2.3940658e-13
320.65000,3.1809268e-11,2.3927139e-13
320.66000,3.1817874e-11,2.4001565e-13
320.67000,3.1868764e-11,2.4064104e-13
320.68000,3.1892923e-11,2.4111334e-13
320.69000,3.1864608e-11,2.4151077e-13
320.70000,3.1795093e-11,2.4109732e-13
320.71000,3.1754698e-11,2.4068671e-13
320.72000,3.1783414e-11,2.4106398e-13
320.73000,3.1832312e-11,2.4102387e-13
320.74000,3.1916964e-11,2.4094825e-13
320.75000,3.2011659e-11,2.4160635e-13
320.76000,3.2065622e-11,2.4182800e-13
320.77000,3.2070075e-11,2.4099726e-13
320.78000,3.2085466e-11,2.4042406e-13
320.79000,3.2129599e-11,2.4058412e-13
320.80000,3.2137779e-11,2.4135987e-13
320.81000,3.2124927e-11,2.4210282e-13
320.82000,3.2122495e-11,2.4146623e-13
320.83000,3.2170573e-11,2.4008012e-13
320.84000,3.2220672e-11,2.3922260e-13
320.85000,3.2182075e-11,2.3855821e-13
320.86000,3.2105864e-11,2.3783988e-13
320.87000,3.2030516e-11,2.3738825e-13
320.88000,3.1945762e-11,2.3736271e-13
320.89000,3.1843385e-11,2.3773347e-13
320.90000,3.1743636e-11,2.3814623e-13
320.91000,3.1687014e-11,2.3825376e-13
320.92000,3.1643633e-11,2.3815814e-13
320.93000,3.1575519e-11,2.3791608e-13
320.94000,3.1508197e-11,2.3724393e-13
320.95000,3.1503076e-11,2.3624641e-13
320.96000,3.1522114e-11,2.3512189e-13
320.97000,3.1499708e-11,2.3385255e-13
320.98000,3.1455237e-11,2.3254266e-13
320.99000,3.1420739e-11,2.3158526e-13
321.00000,3.1357518e-11,2.3134389e-13
321.01000,3.1297624e-11,2.3156853e-13
321.02000,3.1330548e-11,2.3181980e-13
321.03000,3.1371884e-11,2.3223762e-13
321.04000,3.1326719e-11,2.3222540e-13
321.05000,3.1253367e-11,2.3090706e-13
321.06000,3.1228871e-11,2.2925429e-13
321.07000,3.1248235e-11,2.2870799e-13
321.08000,3.1243928e-11,2.2938981e-13
321.09000,3.1165085e-11,2.2993430e-13
321.10000,3.1056229e-11,2.2871865e-13
321.11000,3.0977128e-11,2.2721632e-13
321.12000,3.0960977e-11,2.2714550e-13
321.13000,3.0979695e-11,2.2704895e-13
321.14000,3.1014035e-11,2.2615912e-13
321.15000,3.1052236e-11,2.2608296e-13
321.16000,3.1003387e-11,2.2614478e-13
321.17000,3.0903255e-11,2.2549805e-13
321.18000,3.0846252e-11,2.2545711e-13
321.19000,3.0773935e-11,2.2550978e-13
321.20000,3.0678431e-11,2.2534109e-13
321.21000,3.0641353e-11,2.2515545e-13
321.22000,3.0616218e-11,2.2412346e-13
321.23000,3.0521493e-11,2.2294988e-13
321.24000,3.0405365e-11,2.2233980e-13
321.25000,3.0337733e-11,2.2205779e-13
321.26000,3.0285360e-11,2.2140241e-13
321.27000,3.0196243e-11,2.2040389e-13
321.28000,3.0148364e-11,2.1970618e-13
321.29000,3.0125589e-11,2.1895642e-13
321.30000,3.0030518e-11,2.1813566e-13
321.31000,2.9888393e-11,2.1787802e-13
321.32000,2.9766688e-11,2.1776332e-13
321.33000,2.9690948e-11,2.1714873e-13
321.34000,2.9626467e-11,2.1623437e-13
321.35000,2.9531861e-11,2.1518742e-13
321.36000,2.9440221e-11,2.1372743e-13
321.37000,2.9398433e-11,2.1223871e-13
321.38000,2.9357531e-11,2.1138991e-13
321.39000,2.9261610e-11,2.1119151e-13
321.40000,2.9169952e-11,2.1118454e-13
321.41000,2.9145974e-11,2.1128434e-13
321.42000,2.9084886e-11,2.1207351e-13
321.43000,2.8942477e-11,2.1202814e-13
321.44000,2.8827321e-11,2.0956124e-13
321.45000,2.8762317e-11,2.0698557e-13
321.46000,2.8712744e-11,2.0562563e-13
321.47000,2.8682905e-11,2.0478189e-13
321.48000,2.8658879e-11,2.0405001e-13
321.49000,2.8576104e-11,2.0366492e-13
321.50000,2.8460661e-11,2.0367240e-13
321.51000,2.8424823e-11,2.0350816e-13
321.52000,2.8388951e-11,2.0250876e-13
321.53000,2.8253796e-11,2.0112488e-13
321.54000,2.8143002e-11,2.0017518e-13
321.55000,2.8148741e-11,1.9962208e-13
321.56000,2.8158141e-11,1.9922602e-13
321.57000,2.8121837e-11,1.9936780e-13
321.58000,2.8088742e-11,1.9978518e-13
321.59000,2.8042714e-11,1.9976503e-13
321.60000,2.7929988e-11,1.9950036e-13
321.61000,2.7802475e-11,1.9922946e-13
321.62000,2.7714426e-11,1.9862824e-13
321.63000,2.7623728e-11,1.9787195e-13
321.64000,2.7539471e-11,1.9773827e-13
321.65000,2.7491059e-11,1.9792810e-13
321.66000,2.7431341e-11,1.9746397e-13
321.67000,2.7322926e-11,1.9639056e-13
321.68000,2.7230766e-11,1.9554702e-13
321.69000,2.7214892e-11,1.9513956e-13
321.70000,2.7205914e-11,1.9502827e-13
321.71000,2.7093819e-11,1.9512640e-13
321.72000,2.6931715e-11,1.9511545e-13
321.73000,2.6863434e-11,1.9490197e-13
321.74000,2.6828936e-11,1.9466615e-13
321.75000,2.6715738e-11,1.9420043e-13
321.76000,2.6604280e-11,1.9329245e-13
321.77000,2.6586436e-11,1.9255414e-13
321.78000,2.6578714e-11,1.9237463e-13
321.79000,2.6526258e-11,1.9228718e-13
321.80000,2.6465314e-11,1.9203916e-13
321.81000,2.6381415e-11,1.9183901e-13
321.82000,2.6224160e-11,1.9138277e-13
321.83000,2.6026116e-11,1.9018158e-13
321.84000,2.5833439e-11,1.8854390e-13
321.85000,2.5641898e-11,1.8727018e-13
321.86000,2.5485778e-11,1.8682158e-13
321.87000,2.5433935e-11,1.8681050e-13
321.88000,2.5425599e-11,1.8692846e-13
321.89000,2.5328311e-11,1.8670711e-13
321.90000,2.5131396e-11,1.8560587e-13
321.91000,2.4895013e-11,1.8388770e-13
321.92000,2.4672048e-11,1.8225070e-13
321.93000,2.4534559e-11,1.8111952e-13
321.94000,2.4481982e-11,1.8055137e-13
321.95000,2.4395012e-11,1.8003699e-13
321.96000,2.4239226e-11,1.7901345e-13
321.97000,2.4078424e-11,1.7776241e-13
321.98000,2.3941894e-11,1.7616529e-13
321.99000,2.3800250e-11,1.7516433e-13
322.00000,2.3656930e-11,1.7396452e-13
322.01000,2.3557593e-11,1.7286252e-13
322.02000,2.3507124e-11,1.7323573e-13
322.03000,2.3435513e-11,1.7278384e-13
322.04000,2.3322751e-11,1.7090216e-13
322.05000,2.3247291e-11,1.7063990e-13
322.06000,2.3255488e-11,1.7173683e-13
322.07000,2.3269528e-11,1.7123394e-13
322.08000,2.3175626e-11,1.6878470e-13
322.09000,2.3050310e-11,1.6693028e-13
322.10000,2.2981919e-11,1.6625355e-13
322.11000,2.2889661e-11,1.6559024e-13
322.12000,2.2751672e-11,1.6485290e-13
322.13000,2.2665032e-11,1.6444727e-13
322.14000,2.2647466e-11,1.6396783e-13
322.15000,2.2613571e-11,1.6318789e-13
322.16000,2.2558419e-11,1.6259224e-13
322.17000,2.2509301e-11,1.6226025e-13
322.18000,2.2462997e-11,1.6222519e-13
322.19000,2.2444134e-11,1.6292847e-13
322.20000,2.2445687e-11,1.6449151e-13
322.21000,2.2401381e-11,1.6589716e-13
322.22000,2.2305051e-11,1.6544783e-13
322.23000,2.2232010e-11,1.6354063e-13
322.24000,2.2223149e-11,1.6268523e-13
322.25000,2.2240408e-11,1.6356101e-13
322.26000,2.2224823e-11,1.6401943e-13
322.27000,2.2183695e-11,1.6385860e-13
322.28000,2.2106687e-11,1.6408182e-13
322.29000,2.2000354e-11,1.6377959e-13
322.30000,2.1958231e-11,1.6344074e-13
322.31000,2.1977483e-11,1.6332637e-13
322.32000,2.2006327e-11,1.6302409e-13
322.33000,2.2029328e-11,1.6298405e-13
322.34000,2.2033950e-11,1.6297944e-13
322.35000,2.2028274e-11,1.6323703e-13
322.36000,2.2025947e-11,1.6368432e-13
322.37000,2.1981435e-11,1.6372317e-13
322.38000,2.1882290e-11,1.6335628e-13
322.39000,2.1835335e-11,1.6350691e-13
322.40000,2.1897313e-11,1.6414361e-13
322.41000,2.1963175e-11,1.6446947e-13
322.42000,2.1957046e-11,1.6451365e-13
322.43000,2.1918250e-11,1.6431331e-13
322.44000,2.1905479e-11,1.6388393e-13
322.45000,2.1928646e-11,1.6374038e-13
322.46000,2.1932974e-11,1.6386372e-13
322.47000,2.1896266e-11,1.6379072e-13
322.48000,2.1823100e-11,1.6345956e-13
322.49000,2.1767491e-11,1.6319571e-13
322.50000,2.1711934e-11,1.6276003e-13
322.51000,2.1591215e-11,1.6195126e-13
322.52000,2.1462772e-11,1.6115227e-13
322.53000,2.1401123e-11,1.6041092e-13
322.54000,2.1358353e-11,1.5968690e-13
322.55000,2.1285828e-11,1.5929293e-13
322.56000,2.1214678e-11,1.5922943e-13
322.57000,2.1190088e-11,1.5931547e-13
322.58000,2.1188687e-11,1.5958263e-13
322.59000,2.1158543e-11,1.5964471e-13
322.60000,2.1126904e-11,1.5941940e-13
322.61000,2.1118684e-11,1.5928159e-13
322.62000,2.1093664e-11,1.5886318e-13
322.63000,2.1069684e-11,1.5838233e-13
322.64000,2.1064510e-11,1.5832867e-13
322.65000,2.1061165e-11,1.5838605e-13
322.66000,2.1059940e-11,1.5835499e-13
322.67000,2.1037389e-11,1.5839283e-13
322.68000,2.0982245e-11,1.5831413e-13
322.69000,2.0947429e-11,1.5804039e-13
322.70000,2.0974432e-11,1.5795705e-13
322.71000,2.1019262e-11,1.5828981e-13
322.72000,2.1040479e-11,1.5860457e-13
322.73000,2.1046843e-11,1.5883790e-13
322.74000,2.1060138e-11,1.5919681e-13
322.75000,2.1075384e-11,1.5960259e-13
322.76000,2.1047520e-11,1.5983499e-13
322.77000,2.1006786e-11,1.5992878e-13
322.78000,2.0991521e-11,1.5976767e-13
322.79000,2.0988330e-11,1.5957371e-13
322.80000,2.1007620e-11,1.5960783e-13
322.81000,2.1043800e-11,1.5953833e-13
322.82000,2.1055324e-11,1.5944822e-13
322.83000,2.1051669e-11,1.5978822e-13
322.84000,2.1051912e-11,1.6031098e-13
322.85000,2.1047167e-11,1.6039182e-13
322.86000,2.1041173e-11,1.5990822e-13
322.87000,2.1010024e-11,1.5918136e-13
322.88000,2.0915485e-11,1.5857730e-13
322.89000,2.0763982e-11,1.5794362e-13
322.90000,2.0588396e-11,1.5713286e-13
322.91000,2.0511995e-11,1.5680681e-13
322.92000,2.0632527e-11,1.5766260e-13
322.93000,2.0830628e-11,1.5872303e-13
322.94000,2.0981321e-11,1.5913153e-13
322.95000,2.1073655e-11,1.5923755e-13
322.96000,2.1138412e-11,1.5926001e-13
322.97000,2.1192990e-11,1.5947404e-13
322.98000,2.1199252e-11,1.5910849e-13
322.99000,2.1145418e-11,1.5839242e-13
323.00000,2.1096063e-11,1.5855510e-13
323.01000,2.1125169e-11,1.5913811e-13
323.02000,2.1159939e-11,1.5893952e-13
323.03000,2.1131259e-11,1.5860634e-13
323.04000,2.1083193e-11,1.5859670e-13
323.05000,2.1085480e-11,1.5809666e-13
323.06000,2.1148719e-11,1.5740437e-13
323.07000,2.1200390e-11,1.5728860e-13
323.08000,2.1204132e-11,1.5783937e-13
323.09000,2.1174388e-11,1.5817460e-13
323.10000,2.1154105e-11,1.5757921e-13
323.11000,2.1144681e-11,1.5694971e-13
323.12000,2.1131174e-11,1.5698072e-13
323.13000,2.1127612e-11,1.5737761e-13
323.14000,2.1159674e-11,1.5816507e-13
323.15000,2.1181652e-11,1.5883290e-13
323.16000,2.1152933e-11,1.5841105e-13
323.17000,2.1151155e-11,1.5731261e-13
323.18000,2.1190165e-11,1.5629810e-13
323.19000,2.1181941e-11,1.5537528e-13
323.20000,2.1118012e-11,1.5457825e-13
323.21000,2.1086922e-11,1.5403857e-13
323.22000,2.1125519e-11,1.5389837e-13
323.23000,2.1157315e-11,1.5413126e-13
323.24000,2.1131807e-11,1.5432432e-13
323.25000,2.1107259e-11,1.5437874e-13
323.26000,2.1126454e-11,1.5470207e-13
323.27000,2.1124392e-11,1.5517880e-13
323.28000,2.1080544e-11,1.5558341e-13
323.29000,2.1080120e-11,1.5613075e-13
323.30000,2.1137511e-11,1.5632176e-13
323.31000,2.1170102e-11,1.5555928e-13
323.32000,2.1184060e-11,1.5461861e-13
323.33000,2.1203940e-11,1.5420936e-13
323.34000,2.1203097e-11,1.5419060e-13
323.35000,2.1181000e-11,1.5456175e-13
323.36000,2.1167524e-11,1.5506397e-13
323.37000,2.1164471e-11,1.5452665e-13
323.38000,2.1154711e-11,1.5320160e-13
323.39000,2.1126650e-11,1.5244595e-13
323.40000,2.1102229e-11,1.5247859e-13
323.41000,2.1126745e-11,1.5260674e-13
323.42000,2.1154942e-11,1.5233609e-13
323.43000,2.1148400e-11,1.5237280e-13
323.44000,2.1145011e-11,1.5254447e-13
323.45000,2.1149314e-11,1.5208457e-13
323.46000,2.1148415e-11,1.5182795e-13
323.47000,2.1149637e-11,1.5199866e-13
323.48000,2.1114687e-11,1.5142710e-13
323.49000,2.1060952e-11,1.5063914e-13
323.50000,2.1051690e-11,1.5033501e-13
323.51000,2.1068705e-11,1.5017918e-13
323.52000,2.1091118e-11,1.5006543e-13
323.53000,2.1088420e-11,1.4968531e-13
323.54000,2.1046742e-11,1.4928104e-13
323.55000,2.1016061e-11,1.4889256e-13
323.56000,2.1016360e-11,1.4858363e-13
323.57000,2.1022712e-11,1.4854635e-13
323.58000,2.1004263e-11,1.4838854e-13
323.59000,2.0991761e-11,1.4789842e-13
323.60000,2.1016581e-11,1.4746318e-13
323.61000,2.1027079e-11,1.4716733e-13
323.62000,2.1021272e-11,1.4697576e-13
323.63000,2.1026382e-11,1.4674135e-13
323.64000,2.0989899e-11,1.4632436e-13
323.65000,2.0919632e-11,1.4593909e-13
323.66000,2.0881543e-11,1.4564383e-13
323.67000,2.0880966e-11,1.4539099e-13
323.68000,2.0872103e-11,1.4524121e-13
323.69000,2.0870289e-11,1.4534640e-13
323.70000,2.0891547e-11,1.4528909e-13
323.71000,2.0915496e-11,1.4492976e-13
323.72000,2.0908430e-11,1.4477588e-13
323.73000,2.0868402e-11,1.4491627e-13
323.74000,2.0838727e-11,1.4510809e-13
323.75000,2.0846304e-11,1.4543450e-13
323.76000,2.0839485e-11,1.4582650e-13
323.77000,2.0825065e-11,1.4582716e-13
323.78000,2.0842977e-11,1.4528170e-13
323.79000,2.0824809e-11,1.4454715e-13
323.80000,2.0786947e-11,1.4430028e-13
323.81000,2.0819582e-11,1.4452423e-13
323.82000,2.0868431e-11,1.4448253e-13
323.83000,2.0867586e-11,1.4436619e-13
323.84000,2.0857299e-11,1.4450500e-13
323.85000,2.0853846e-11,1.4442864e-13
323.86000,2.0844782e-11,1.4430161e-13
323.87000,2.0847886e-11,1.4441341e-13
323.88000,2.0869722e-11,1.4452023e-13
323.89000,2.0891773e-11,1.4445133e-13
323.90000,2.0923543e-11,1.4457635e-13
323.91000,2.0951948e-11,1.4498440e-13
323.92000,2.0971207e-11,1.4547824e-13
323.93000,2.0984599e-11,1.4594633e-13
323.94000,2.0949928e-11,1.4600202e-13
323.95000,2.0908002e-11,1.4565916e-13
323.96000,2.0905056e-11,1.4526390e-13
323.97000,2.0882909e-11,1.4501045e-13
323.98000,2.0829358e-11,1.4485578e-13
323.99000,2.0810866e-11,1.4464681e-13
324.00000,2.0823448e-11,1.4439164e-13
324.01000,2.0841595e-11,1.4439067e-13
324.02000,2.0867354e-11,1.4473814e-13
324.03000,2.0859215e-11,1.4490702e-13
324.04000,2.0779294e-11,1.4472755e-13
324.05000,2.0677598e-11,1.4440743e-13
324.06000,2.0644027e-11,1.4409043e-13
324.07000,2.0658176e-11,1.4387309e-13
324.08000,2.0631189e-11,1.4360359e-13
324.09000,2.0564958e-11,1.4316887e-13
324.10000,2.0555157e-11,1.4293397e-13
324.11000,2.0600866e-11,1.4306066e-13
324.12000,2.0645274e-11,1.4311184e-13
324.13000,2.0654739e-11,1.4272766e-13
324.14000,2.0555886e-11,1.4178339e-13
324.15000,2.0291888e-11,1.4021734e-13
324.16000,1.9872636e-11,1.3781853e-13
324.17000,1.9367784e-11,1.3490844e-13
324.18000,1.8880219e-11,1.3230229e-13
324.19000,1.8741522e-11,1.3163679e-13
324.20000,1.9191912e-11,1.3375057e-13
324.21000,1.9804256e-11,1.3651972e-13
324.22000,2.0137730e-11,1.3797075e-13
324.23000,2.0224000e-11,1.3813995e-13
324.24000,2.0224703e-11,1.3786420e-13
324.25000,2.0211339e-11,1.3781261e-13
324.26000,2.0186488e-11,1.3780982e-13
324.27000,2.0177822e-11,1.3750929e-13
324.28000,2.0190177e-11,1.3684916e-13
324.29000,2.0184961e-11,1.3664712e-13
324.30000,2.0189899e-11,1.3625961e-13
324.31000,2.0226022e-11,1.3618889e-13
324.32000,2.0243835e-11,1.3703465e-13
324.33000,2.0245256e-11,1.3682645e-13
324.34000,2.0277164e-11,1.3588421e-13
324.35000,2.0293384e-11,1.3640967e-13
324.36000,2.0260996e-11,1.3777349e-13
324.37000,2.0218183e-11,1.3761736e-13
324.38000,2.0194451e-11,1.3596118e-13
324.39000,2.0180928e-11,1.3446738e-13
324.40000,2.0162417e-11,1.3368451e-13
324.41000,2.0164492e-11,1.3356715e-13
324.42000,2.0178745e-11,1.3392460e-13
324.43000,2.0155319e-11,1.3425306e-13
324.44000,2.0104131e-11,1.3419823e-13
324.45000,2.0077338e-11,1.3403483e-13
324.46000,2.0102165e-11,1.3399904e-13
324.47000,2.0151373e-11,1.3404740e-13
324.48000,2.0143859e-11,1.3423157e-13
324.49000,2.0092499e-11,1.3482788e-13
324.50000,2.0103764e-11,1.3605753e-13
324.51000,2.0179574e-11,1.3696255e-13
324.52000,2.0231566e-11,1.3647578e-13
324.53000,2.0237198e-11,1.3578354e-13
324.54000,2.0215751e-11,1.3633277e-13
324.55000,2.0232951e-11,1.3746290e-13
324.56000,2.0291998e-11,1.3774858e-13
324.57000,2.0312693e-11,1.3784703e-13
324.58000,2.0313214e-11,1.3832981e-13
324.59000,2.0346245e-11,1.3859412e-13
324.60000,2.0392569e-11,1.3902896e-13
324.61000,2.0398707e-11,1.3933378e-13
324.62000,2.0379853e-11,1.3940661e-13
324.63000,2.0408436e-11,1.3947222e-13
324.64000,2.0448988e-11,1.3945782e-13
324.65000,2.0446264e-11,1.3956031e-13
324.66000,2.0405016e-11,1.3962765e-13
324.67000,2.0323062e-11,1.3937873e-13
324.68000,2.0224893e-11,1.3894682e-13
324.69000,2.0157225e-11,1.3865684e-13
324.70000,2.0112854e-11,1.3849392e-13
324.71000,2.0073176e-11,1.3836099e-13
324.72000,2.0068908e-11,1.3829296e-13
324.73000,2.0079719e-11,1.3818014e-13
324.74000,2.0064150e-11,1.3802515e-13
324.75000,2.0049197e-11,1.3796289e-13
324.76000,2.0071066e-11,1.3804618e-13
324.77000,2.0075709e-11,1.3821685e-13
324.78000,2.0021325e-11,1.3831579e-13
324.79000,2.0002455e-11,1.3842238e-13
324.80000,2.0018499e-11,1.3863621e-13
324.81000,2.0018849e-11,1.3884015e-13
324.82000,2.0045563e-11,1.3913212e-13
324.83000,2.0071150e-11,1.3939996e-13
324.84000,2.0045336e-11,1.3945243e-13
324.85000,2.0017950e-11,1.3936055e-13
324.86000,2.0053751e-11,1.3949165e-13
324.87000,2.0149613e-11,1.4010998e-13
324.88000,2.0211145e-11,1.4057870e-13
324.89000,2.0197976e-11,1.4056560e-13
324.90000,2.0187183e-11,1.4064596e-13
324.91000,2.0192878e-11,1.4091683e-13
324.92000,2.0168608e-11,1.4083172e-13
324.93000,2.0133889e-11,1.4043186e-13
324.94000,2.0143917e-11,1.4037307e-13
324.95000,2.0187401e-11,1.4079044e-13
324.96000,2.0202781e-11,1.4114292e-13
324.97000,2.0189060e-11,1.4122925e-13
324.98000,2.0167954e-11,1.4130542e-13
324.99000,2.0140754e-11,1.4146552e-13
325.00000,2.0143927e-11,1.4164380e-13
325.01000,2.0208826e-11,1.4184746e-13
325.02000,2.0272950e-11,1.4218912e-13
325.03000,2.0287799e-11,1.4265600e-13
325.04000,2.0287118e-11,1.4295376e-13
325.05000,2.0326398e-11,1.4271706e-13
325.06000,2.0380193e-11,1.4217532e-13
325.07000,2.0374748e-11,1.4165292e-13
325.08000,2.0336336e-11,1.4138335e-13
325.09000,2.0344468e-11,1.4147976e-13
325.10000,2.0406774e-11,1.4179164e-13
325.11000,2.0472250e-11,1.4225602e-13
325.12000,2.0504570e-11,1.4250894e-13
325.13000,2.0515140e-11,1.4223950e-13
325.14000,2.0529652e-11,1.4188423e-13
325.15000,2.0554519e-11,1.4182048e-13
325.16000,2.0600859e-11,1.4199405e-13
325.17000,2.0650634e-11,1.4229576e-13
325.18000,2.0679544e-11,1.4270532e-13
325.19000,2.0655823e-11,1.4281988e-13
325.20000,2.0602559e-11,1.4240201e-13
325.21000,2.0607936e-11,1.4195840e-13
325.22000,2.0674576e-11,1.4177509e-13
325.23000,2.0745492e-11,1.4195289e-13
325.24000,2.0808952e-11,1.4231382e-13
