wave,flux,fluxerr
320.00000,8.9207961e-12,8.4426372e-14
320.01000,8.9383818e-12,8.3936834e-14
320.02000,8.9457971e-12,8.4294561e-14
320.03000,8.9428444e-12,8.4951126e-14
320.04000,8.9494291e-12,8.4994878e-14
320.05000,8.9593007e-12,8.4981446e-14
320.06000,8.9607006e-12,8.5290757e-14
320.07000,8.9538229e-12,8.5356066e-14
320.08000,8.9347187e-12,8.5322233e-14
320.09000,8.9256347e-12,8.5322173e-14
320.10000,8.9233351e-12,8.5356620e-14
320.11000,8.9065508e-12,8.5303663e-14
320.12000,8.8875997e-12,8.5091458e-14
320.13000,8.8796152e-12,8.4994924e-14
320.14000,8.8750374e-12,8.4984188e-14
320.15000,8.8558151e-12,8.4899014e-14
320.16000,8.8024000e-12,8.4633756e-14
320.17000,8.7291831e-12,8.4154086e-14
320.18000,8.6494972e-12,8.3338936e-14
320.19000,8.5791219e-12,8.2470483e-14
320.20000,8.5273427e-12,8.1895984e-14
320.21000,8.4696162e-12,8.1378907e-14
320.22000,8.4070869e-12,8.0830319e-14
320.23000,8.3468691e-12,8.0383261e-14
320.24000,8.2849256e-12,7.9995443e-14
320.25000,8.2341136e-12,7.9696711e-14
320.26000,8.1863829e-12,7.9362817e-14
320.27000,8.1331705e-12,7.8836416e-14
320.28000,8.0926139e-12,7.8339695e-14
320.29000,8.0689954e-12,7.8109048e-14
320.30000,8.0553180e-12,7.8014484e-14
320.31000,8.0659597e-12,7.8094703e-14
320.32000,8.0844000e-12,7.8365655e-14
320.33000,8.1085735e-12,7.8708938e-14
320.34000,8.1656107e-12,7.9165539e-14
320.35000,8.2373289e-12,7.9649078e-14
320.36000,8.3063658e-12,8.0215084e-14
320.37000,8.3804868e-12,8.0967326e-14
320.38000,8.4627352e-12,8.1747889e-14
320.39000,8.5528630e-12,8.2519609e-14
320.40000,8.6465384e-12,8.3238300e-14
320.41000,8.7452508e-12,8.3927610e-14
320.42000,8.8250790e-12,8.4708358e-14
320.43000,8.8676868e-12,8.5428821e-14
320.44000,8.8974486e-12,8.5916828e-14
320.45000,8.9340339e-12,8.6230426e-14
320.46000,8.9724533e-12,8.6468410e-14
320.47000,8.9892592e-12,8.6407767e-14
320.48000,8.9933006e-12,8.6237967e-14
320.49000,9.0157015e-12,8.6380728e-14
320.50000,9.0332869e-12,8.6579341e-14
320.51000,9.0316622e-12,8.6713906e-14
320.52000,9.0362041e-12,8.6992086e-14
320.53000,9.0437706e-12,8.7227493e-14
320.54000,9.0421884e-12,8.7185921e-14
320.55000,9.0556260e-12,8.7201107e-14
320.56000,9.0834525e-12,8.7410764e-14
320.57000,9.0963578e-12,8.7620266e-14
320.58000,9.0907082e-12,8.7847877e-14
320.59000,9.0896694e-12,8.8184715e-14
320.60000,9.0955550e-12,8.8484314e-14
320.61000,9.0942002e-12,8.8467181e-14
320.62000,9.0908834e-12,8.8237070e-14
320.63000,9.0873345e-12,8.8084419e-14
320.64000,9.0842282e-12,8.8125100e-14
320.65000,9.0919912e-12,8.8387501e-14
320.66000,9.0943587e-12,8.8658475e-14
320.67000,9.0867632e-12,8.8911790e-14
320.68000,9.0860710e-12,8.8971396e-14
320.69000,9.0930088e-12,8.8879352e-14
320.70000,9.0999484e-12,8.8823983e-14
320.71000,9.1059699e-12,8.8949857e-14
320.72000,9.1092164e-12,8.9087699e-14
320.73000,9.1074513e-12,8.8987411e-14
320.74000,9.1086425e-12,8.8886683e-14
320.75000,9.1230178e-12,8.8943181e-14
320.76000,9.1356232e-12,8.8970315e-14
320.77000,9.1295940e-12,8.8849979e-14
320.78000,9.1102806e-12,8.8521720e-14
320.79000,9.0915173e-12,8.8108440e-14
320.80000,9.0782369e-12,8.7860257e-14
320.81000,9.0949286e-12,8.7981053e-14
320.82000,9.1331764e-12,8.8168391e-14
320.83000,9.1424656e-12,8.7903824e-14
320.84000,9.1288081e-12,8.7584880e-14
320.85000,9.1123801e-12,8.7610965e-14
320.86000,9.0959703e-12,8.7823024e-14
320.87000,9.0840340e-12,8.7685528e-14
320.88000,9.0776128e-12,8.7176293e-14
320.89000,9.0696686e-12,8.6775407e-14
320.90000,9.0525254e-12,8.6504729e-14
320.91000,9.0552316e-12,8.6543359e-14
320.92000,9.0741396e-12,8.6702776e-14
320.93000,9.0831790e-12,8.6846740e-14
320.94000,9.0879974e-12,8.7223148e-14
320.95000,9.0876913e-12,8.7695062e-14
320.96000,9.0772293e-12,8.8034905e-14
320.97000,9.0660458e-12,8.8264605e-14
320.98000,9.0573872e-12,8.8341513e-14
320.99000,9.0563754e-12,8.8336145e-14
321.00000,9.0698207e-12,8.8253717e-14
321.01000,9.0939412e-12,8.7926937e-14
321.02000,9.1107529e-12,8.7393559e-14
321.03000,9.1082354e-12,8.6738043e-14
321.04000,9.1008408e-12,8.6054536e-14
321.05000,9.1049974e-12,8.5659418e-14
321.06000,9.1213215e-12,8.5733624e-14
321.07000,9.1241959e-12,8.5871423e-14
321.08000,9.1020519e-12,8.5858215e-14
321.09000,9.0854609e-12,8.6075200e-14
321.10000,9.0905083e-12,8.6307312e-14
321.11000,9.1034642e-12,8.5901165e-14
321.12000,9.1155746e-12,8.5308366e-14
321.13000,9.1385373e-12,8.5287135e-14
321.14000,9.1585885e-12,8.5748947e-14
321.15000,9.1603429e-12,8.5987461e-14
321.16000,9.1601474e-12,8.5827228e-14
321.17000,9.1522737e-12,8.5824626e-14
321.18000,9.1319840e-12,8.6039223e-14
321.19000,9.1278597e-12,8.6102326e-14
321.20000,9.1389672e-12,8.5882717e-14
321.21000,9.1473343e-12,8.5752522e-14
321.22000,9.1404287e-12,8.5635260e-14
321.23000,9.1222896e-12,8.5436989e-14
321.24000,9.1198385e-12,8.5424024e-14
321.25000,9.1342819e-12,8.5309692e-14
321.26000,9.1384501e-12,8.5052008e-14
321.27000,9.1263877e-12,8.4826823e-14
321.28000,9.1078078e-12,8.4573291e-14
321.29000,9.0991811e-12,8.4508780e-14
321.30000,9.0955747e-12,8.4541080e-14
321.31000,9.0697827e-12,8.4405822e-14
321.32000,9.0327264e-12,8.4083204e-14
321.33000,9.0106279e-12,8.3834563e-14
321.34000,8.9885635e-12,8.3382249e-14
321.35000,8.9740212e-12,8.2768288e-14
321.36000,8.9814957e-12,8.2360096e-14
321.37000,8.9886943e-12,8.2216051e-14
321.38000,8.9784046e-12,8.2163782e-14
321.39000,8.9591062e-12,8.2186076e-14
321.40000,8.9405280e-12,8.2585984e-14
321.41000,8.9273386e-12,8.3022804e-14
321.42000,8.9338104e-12,8.2625072e-14
321.43000,8.9461867e-12,8.1853219e-14
321.44000,8.9601258e-12,8.1378438e-14
321.45000,8.9828491e-12,8.1295969e-14
321.46000,9.0005957e-12,8.1234323e-14
321.47000,9.0092161e-12,8.1162380e-14
321.48000,9.0231147e-12,8.1345534e-14
321.49000,9.0413081e-12,8.1637733e-14
321.50000,9.0610562e-12,8.1741185e-14
321.51000,9.0722300e-12,8.1589444e-14
321.52000,9.0761418e-12,8.1380810e-14
321.53000,9.0884138e-12,8.1114682e-14
321.54000,9.1080350e-12,8.0818048e-14
321.55000,9.1307159e-12,8.0885834e-14
321.56000,9.1532799e-12,8.1380911e-14
321.57000,9.1674153e-12,8.1745655e-14
321.58000,9.1705607e-12,8.1764043e-14
321.59000,9.1731988e-12,8.1855180e-14
321.60000,9.1738780e-12,8.1977810e-14
321.61000,9.1702209e-12,8.1955960e-14
321.62000,9.1696928e-12,8.2017953e-14
321.63000,9.1696230e-12,8.2166631e-14
321.64000,9.1587664e-12,8.2092930e-14
321.65000,9.1352137e-12,8.1828960e-14
321.66000,9.1111954e-12,8.1571508e-14
321.67000,9.1158466e-12,8.1410477e-14
321.68000,9.1321552e-12,8.1330020e-14
321.69000,9.1296863e-12,8.1401612e-14
321.70000,9.0967347e-12,8.1471663e-14
321.71000,9.0542881e-12,8.1354504e-14
321.72000,9.0353558e-12,8.1171566e-14
321.73000,9.0229281e-12,8.0993883e-14
321.74000,8.9945191e-12,8.0718760e-14
321.75000,8.9601240e-12,8.0283720e-14
321.76000,8.9441693e-12,8.0037507e-14
321.77000,8.9363694e-12,8.0107498e-14
321.78000,8.9324602e-12,8.0177227e-14
321.79000,8.9409917e-12,8.0202687e-14
321.80000,8.9368463e-12,8.0267298e-14
321.81000,8.9108325e-12,8.0238946e-14
321.82000,8.8852930e-12,7.9997365e-14
321.83000,8.8649077e-12,7.9696254e-14
321.84000,8.8577986e-12,7.9667510e-14
321.85000,8.8764100e-12,7.9904487e-14
321.86000,8.9091478e-12,8.0104212e-14
321.87000,8.9407216e-12,8.0325924e-14
321.88000,8.9616264e-12,8.0595122e-14
321.89000,8.9642025e-12,8.0581097e-14
321.90000,8.9584329e-12,8.0310984e-14
321.91000,8.9639868e-12,8.0205216e-14
321.92000,8.9832275e-12,8.0294238e-14
321.93000,9.0011125e-12,8.0322286e-14
321.94000,9.0061622e-12,8.0246004e-14
321.95000,9.0162446e-12,8.0221795e-14
321.96000,9.0355561e-12,8.0205447e-14
321.97000,9.0439691e-12,8.0057524e-14
321.98000,9.0463043e-12,7.9963492e-14
321.99000,9.0556460e-12,7.9977891e-14
322.00000,9.0594002e-12,7.9948235e-14
322.01000,9.0581397e-12,7.9920945e-14
322.02000,9.0583002e-12,8.0073403e-14
322.03000,9.0695947e-12,7.9942878e-14
322.04000,9.0839950e-12,7.9709950e-14
322.05000,9.0895191e-12,7.9631345e-14
322.06000,9.0883407e-12,7.9237773e-14
322.07000,9.0767339e-12,7.9200491e-14
322.08000,9.0587520e-12,7.9552346e-14
322.09000,9.0484743e-12,7.9208172e-14
322.10000,9.0419255e-12,7.8455952e-14
322.11000,9.0373157e-12,7.8472571e-14
322.12000,9.0421167e-12,7.9190395e-14
322.13000,9.0531754e-12,7.9319282e-14
322.14000,9.0775895e-12,7.8715157e-14
322.15000,9.0981207e-12,7.8208940e-14
322.16000,9.0925633e-12,7.8043905e-14
322.17000,9.0775599e-12,7.7992406e-14
322.18000,9.0693205e-12,7.7978312e-14
322.19000,9.0639534e-12,7.8074590e-14
322.20000,9.0691768e-12,7.8187950e-14
322.21000,9.0923333e-12,7.8386777e-14
322.22000,9.1102166e-12,7.8808684e-14
322.23000,9.1132170e-12,7.9474515e-14
322.24000,9.1127201e-12,8.0303285e-14
322.25000,9.1140963e-12,8.0761007e-14
322.26000,9.1205297e-12,8.0506322e-14
322.27000,9.1126976e-12,8.0114756e-14
322.28000,9.0909751e-12,8.0327181e-14
322.29000,9.0914140e-12,8.0833811e-14
322.30000,9.1127275e-12,8.0575712e-14
322.31000,9.1337985e-12,8.0177689e-14
322.32000,9.1452291e-12,8.0440485e-14
322.33000,9.1441029e-12,8.0490834e-14
322.34000,9.1428272e-12,8.0440617e-14
322.35000,9.1514619e-12,8.0688544e-14
322.36000,9.1527937e-12,8.0835123e-14
322.37000,9.1331608e-12,8.0794565e-14
322.38000,9.1115647e-12,8.0646319e-14
322.39000,9.1073114e-12,8.0694132e-14
322.40000,9.1205089e-12,8.0826726e-14
322.41000,9.1394903e-12,8.0970520e-14
322.42000,9.1486696e-12,8.1050625e-14
322.43000,9.1576710e-12,8.1003520e-14
322.44000,9.1695450e-12,8.0905585e-14
322.45000,9.1697476e-12,8.0948426e-14
322.46000,9.1541634e-12,8.1023975e-14
322.47000,9.1281935e-12,8.0909318e-14
322.48000,9.1012210e-12,8.0676042e-14
322.49000,9.0676963e-12,8.0330995e-14
322.50000,9.0426515e-12,7.9964395e-14
322.51000,9.0378591e-12,7.9779194e-14
322.52000,9.0364834e-12,7.9722991e-14
322.53000,9.0347244e-12,7.9689689e-14
322.54000,9.0288254e-12,7.9675075e-14
322.55000,9.0204650e-12,7.9770760e-14
322.56000,9.0271828e-12,7.9923579e-14
322.57000,9.0386047e-12,8.0013708e-14
322.58000,9.0483570e-12,8.0176660e-14
322.59000,9.0615167e-12,8.0323300e-14
322.60000,9.0658657e-12,8.0284443e-14
322.61000,9.0574572e-12,8.0214580e-14
322.62000,9.0516700e-12,8.0157848e-14
322.63000,9.0535633e-12,8.0108990e-14
322.64000,9.0578319e-12,8.0291868e-14
322.65000,9.0570545e-12,8.0556133e-14
322.66000,9.0557117e-12,8.0648865e-14
322.67000,9.0581612e-12,8.0543502e-14
322.68000,9.0593256e-12,8.0411320e-14
322.69000,9.0728152e-12,8.0572725e-14
322.70000,9.0934604e-12,8.0966601e-14
322.71000,9.1079319e-12,8.1247715e-14
322.72000,9.1202979e-12,8.1356312e-14
322.73000,9.1280821e-12,8.1540494e-14
322.74000,9.1240453e-12,8.1809119e-14
322.75000,9.1197440e-12,8.1887605e-14
322.76000,9.1147568e-12,8.1785016e-14
322.77000,9.0963252e-12,8.1665079e-14
322.78000,9.0853047e-12,8.1562300e-14
322.79000,9.0929528e-12,8.1543601e-14
322.80000,9.1040521e-12,8.1673687e-14
322.81000,9.1030094e-12,8.1810806e-14
322.82000,9.0906120e-12,8.1858569e-14
322.83000,9.0697784e-12,8.1763156e-14
322.84000,9.0479698e-12,8.1500529e-14
322.85000,9.0266672e-12,8.1206935e-14
322.86000,9.0127534e-12,8.1082964e-14
322.87000,9.0091195e-12,8.1041759e-14
322.88000,8.9833815e-12,8.0780694e-14
322.89000,8.8998856e-12,8.0206701e-14
322.90000,8.7785691e-12,7.9442001e-14
322.91000,8.7072164e-12,7.8917850e-14
322.92000,8.7236628e-12,7.8925652e-14
322.93000,8.7924497e-12,7.9278923e-14
322.94000,8.8505986e-12,7.9541214e-14
322.95000,8.8667797e-12,7.9523728e-14
322.96000,8.8619255e-12,7.9334408e-14
322.97000,8.8528470e-12,7.9201827e-14
322.98000,8.8368853e-12,7.9157005e-14
322.99000,8.8286102e-12,7.9213318e-14
323.00000,8.8328457e-12,7.9198095e-14
323.01000,8.8359032e-12,7.9105460e-14
323.02000,8.8354619e-12,7.9046860e-14
323.03000,8.8372054e-12,7.8954056e-14
323.04000,8.8497718e-12,7.8996826e-14
323.05000,8.8800617e-12,7.9047269e-14
323.06000,8.9170783e-12,7.9031834e-14
323.07000,8.9310547e-12,7.9165708e-14
323.08000,8.9372982e-12,7.9379354e-14
323.09000,8.9574169e-12,7.9560840e-14
323.10000,8.9746487e-12,7.9860170e-14
323.11000,8.9781500e-12,8.0081045e-14
323.12000,8.9784473e-12,7.9863756e-14
323.13000,8.9839965e-12,7.9532477e-14
323.14000,8.9839553e-12,7.9409933e-14
323.15000,8.9797740e-12,7.9458306e-14
323.16000,8.9827688e-12,7.9668078e-14
323.17000,8.9761748e-12,7.9439552e-14
323.18000,8.9564685e-12,7.8762168e-14
323.19000,8.9402336e-12,7.8236091e-14
323.20000,8.9446870e-12,7.8016854e-14
323.21000,8.9606960e-12,7.8096657e-14
323.22000,8.9502116e-12,7.8326388e-14
323.23000,8.9240220e-12,7.8609261e-14
323.24000,8.9203445e-12,7.9128389e-14
323.25000,8.9331275e-12,7.9730063e-14
323.26000,8.9359965e-12,7.9873797e-14
323.27000,8.9359842e-12,7.9549032e-14
323.28000,8.9641244e-12,7.9349014e-14
323.29000,9.0029246e-12,7.9420043e-14
323.30000,9.0163849e-12,7.9622711e-14
323.31000,9.0145652e-12,7.9810613e-14
323.32000,9.0109996e-12,7.9711605e-14
323.33000,8.9936178e-12,7.9230737e-14
323.34000,8.9762773e-12,7.8499085e-14
323.35000,8.9809338e-12,7.7804436e-14
323.36000,8.9943873e-12,7.7500449e-14
323.37000,9.0105331e-12,7.7532796e-14
323.38000,9.0308616e-12,7.7537813e-14
323.39000,9.0572999e-12,7.7728570e-14
323.40000,9.0951507e-12,7.8382156e-14
323.41000,9.1225602e-12,7.8748340e-14
323.42000,9.1220481e-12,7.8389560e-14
323.43000,9.1224628e-12,7.8061777e-14
323.44000,9.1375656e-12,7.8196555e-14
323.45000,9.1497102e-12,7.8473070e-14
323.46000,9.1522470e-12,7.8240010e-14
323.47000,9.1476285e-12,7.7793917e-14
323.48000,9.1431451e-12,7.7734420e-14
323.49000,9.1521248e-12,7.7789965e-14
323.50000,9.1698295e-12,7.7573967e-14
323.51000,9.1789196e-12,7.7438862e-14
323.52000,9.1768821e-12,7.7403886e-14
323.53000,9.1731920e-12,7.7206116e-14
323.54000,9.1743219e-12,7.7044897e-14
323.55000,9.1865748e-12,7.6991841e-14
323.56000,9.2019905e-12,7.7013787e-14
323.57000,9.1903105e-12,7.6832131e-14
323.58000,9.1724463e-12,7.6381370e-14
323.59000,9.1750824e-12,7.6195527e-14
323.60000,9.1764047e-12,7.6206439e-14
323.61000,9.1643682e-12,7.6137332e-14
323.62000,9.1525508e-12,7.5900205e-14
323.63000,9.1520831e-12,7.5756494e-14
323.64000,9.1612070e-12,7.5770838e-14
323.65000,9.1690265e-12,7.5664965e-14
323.66000,9.1592823e-12,7.5417308e-14
323.67000,9.1492097e-12,7.5283516e-14
323.68000,9.1491955e-12,7.5140004e-14
323.69000,9.1475989e-12,7.4875597e-14
323.70000,9.1439757e-12,7.4739320e-14
323.71000,9.1428057e-12,7.4835769e-14
323.72000,9.1337701e-12,7.4956893e-14
323.73000,9.1141648e-12,7.5001485e-14
323.74000,9.0964147e-12,7.4997539e-14
323.75000,9.0781673e-12,7.4931193e-14
323.76000,9.0666317e-12,7.4692129e-14
323.77000,9.0698895e-12,7.4356941e-14
323.78000,9.0639336e-12,7.4091334e-14
323.79000,9.0536946e-12,7.3954132e-14
323.80000,9.0551964e-12,7.3935312e-14
323.81000,9.0528096e-12,7.3936852e-14
323.82000,9.0470750e-12,7.3940473e-14
323.83000,9.0368238e-12,7.3839709e-14
323.84000,9.0131879e-12,7.3576992e-14
323.85000,8.9960610e-12,7.3481444e-14
323.86000,9.0008943e-12,7.3605252e-14
323.87000,9.0207714e-12,7.3636192e-14
323.88000,9.0490809e-12,7.3709976e-14
323.89000,9.0667323e-12,7.3902216e-14
323.90000,9.0689493e-12,7.3992504e-14
323.91000,9.0966124e-12,7.4222456e-14
323.92000,9.1403428e-12,7.4654959e-14
323.93000,9.1560084e-12,7.4938298e-14
323.94000,9.1568482e-12,7.4911794e-14
323.95000,9.1706176e-12,7.4835004e-14
323.96000,9.1879356e-12,7.4857703e-14
323.97000,9.1917177e-12,7.4865539e-14
323.98000,9.1910877e-12,7.4783534e-14
323.99000,9.1976515e-12,7.4721608e-14
324.00000,9.2104675e-12,7.4830783e-14
324.01000,9.2193822e-12,7.4883172e-14
324.02000,9.2048468e-12,7.4717725e-14
324.03000,9.1677188e-12,7.4515302e-14
324.04000,9.1453524e-12,7.4465169e-14
324.05000,9.1525541e-12,7.4512735e-14
324.06000,9.1495977e-12,7.4378494e-14
324.07000,9.1227658e-12,7.4081047e-14
324.08000,9.0991711e-12,7.3794671e-14
324.09000,9.1035817e-12,7.3669121e-14
324.10000,9.1297221e-12,7.3726879e-14
324.11000,9.1495263e-12,7.3763509e-14
324.12000,9.1363554e-12,7.3469983e-14
324.13000,9.0957350e-12,7.2951969e-14
324.14000,9.0735990e-12,7.2695393e-14
324.15000,9.0564521e-12,7.2529657e-14
324.16000,8.9657106e-12,7.1871121e-14
324.17000,8.7449827e-12,7.0420936e-14
324.18000,8.4736473e-12,6.8589729e-14
324.19000,8.3820418e-12,6.7764996e-14
324.20000,8.5297155e-12,6.8556975e-14
324.21000,8.7786378e-12,7.0196103e-14
324.22000,8.9509313e-12,7.1296115e-14
324.23000,9.0114980e-12,7.1602248e-14
324.24000,9.0162718e-12,7.1666029e-14
324.25000,8.9948599e-12,7.1497925e-14
324.26000,8.9809334e-12,7.1166842e-14
324.27000,8.9866822e-12,7.0987331e-14
324.28000,8.9996893e-12,7.0957380e-14
324.29000,9.0001654e-12,7.0828723e-14
324.30000,8.9860155e-12,7.0555728e-14
324.31000,8.9695696e-12,7.0477028e-14
324.32000,8.9561309e-12,7.0402808e-14
324.33000,8.9428607e-12,7.0310393e-14
324.34000,8.9267826e-12,7.0276536e-14
324.35000,8.9002595e-12,7.0136204e-14
324.36000,8.8698409e-12,7.0273064e-14
324.37000,8.8514657e-12,7.0110694e-14
324.38000,8.8364774e-12,6.9445958e-14
324.39000,8.8327284e-12,6.9382645e-14
324.40000,8.8511937e-12,6.9976066e-14
324.41000,8.8701943e-12,7.0163878e-14
324.42000,8.8725860e-12,6.9651553e-14
324.43000,8.8680653e-12,6.9170148e-14
324.44000,8.8666039e-12,6.9195455e-14
324.45000,8.8721100e-12,6.9599631e-14
324.46000,8.8764972e-12,6.9997331e-14
324.47000,8.8696741e-12,7.0177738e-14
324.48000,8.8775655e-12,7.0389837e-14
324.49000,8.9131628e-12,7.0624866e-14
324.50000,8.9575296e-12,7.0685159e-14
324.51000,8.9966881e-12,7.0692565e-14
324.52000,9.0127883e-12,7.0620111e-14
324.53000,9.0138215e-12,7.0467178e-14
324.54000,9.0299914e-12,7.0701700e-14
324.55000,9.0481616e-12,7.1519025e-14
324.56000,9.0528553e-12,7.2227628e-14
324.57000,9.0529222e-12,7.2104942e-14
324.58000,9.0596775e-12,7.1758966e-14
324.59000,9.0683715e-12,7.2026425e-14
324.60000,9.0638461e-12,7.2421718e-14
324.61000,9.0611534e-12,7.2350732e-14
324.62000,9.0787690e-12,7.2345645e-14
324.63000,9.0998853e-12,7.2455617e-14
324.64000,9.1009937e-12,7.2320018e-14
324.65000,9.0710485e-12,7.2257122e-14
324.66000,9.0411203e-12,7.2190106e-14
324.67000,9.0277762e-12,7.2117498e-14
324.68000,8.9986434e-12,7.2002625e-14
324.69000,8.9574125e-12,7.1797346e-14
324.70000,8.9403736e-12,7.1665010e-14
324.71000,8.9408678e-12,7.1686281e-14
324.72000,8.9263084e-12,7.1627159e-14
324.73000,8.9042701e-12,7.1458607e-14
324.74000,8.8992588e-12,7.1451526e-14
324.75000,8.9168897e-12,7.1682592e-14
324.76000,8.9343185e-12,7.1967066e-14
324.77000,8.9392572e-12,7.2140516e-14
324.78000,8.9323434e-12,7.2145268e-14
324.79000,8.9092549e-12,7.2042511e-14
324.80000,8.8919818e-12,7.2026949e-14
324.81000,8.8927292e-12,7.2132528e-14
324.82000,8.8980373e-12,7.2216957e-14
324.83000,8.9062778e-12,7.2256597e-14
324.84000,8.9149667e-12,7.2301466e-14
324.85000,8.9313710e-12,7.2406327e-14
324.86000,8.9568494e-12,7.2596142e-14
324.87000,8.9733394e-12,7.2888330e-14
324.88000,8.9856893e-12,7.3191684e-14
324.89000,8.9897744e-12,7.3291749e-14
324.90000,8.9699776e-12,7.3257771e-14
324.91000,8.9447996e-12,7.3237265e-14
324.92000,8.9416319e-12,7.3137794e-14
324.93000,8.9594185e-12,7.3133415e-14
324.94000,8.9780337e-12,7.3433369e-14
324.95000,8.9877319e-12,7.3816573e-14
324.96000,9.0016958e-12,7.4180867e-14
324.97000,9.0145332e-12,7.4424944e-14
324.98000,9.0037388e-12,7.4409980e-14
324.99000,8.9882976e-12,7.4400513e-14
325.00000,8.9809516e-12,7.4439752e-14
325.01000,8.9733887e-12,7.4400677e-14
325.02000,8.9700828e-12,7.4386243e-14
325.03000,8.9701762e-12,7.4187513e-14
325.04000,8.9788249e-12,7.3951546e-14
325.05000,8.9993966e-12,7.3993493e-14
325.06000,9.0094334e-12,7.4118877e-14
325.07000,8.9999472e-12,7.4110840e-14
325.08000,8.9905313e-12,7.4148657e-14
325.09000,8.9918124e-12,7.4264953e-14
325.10000,9.0021428e-12,7.4195284e-14
325.11000,9.0097201e-12,7.3983894e-14
325.12000,9.0092695e-12,7.3880678e-14
325.13000,9.0138531e-12,7.3868605e-14
325.14000,9.0228102e-12,7.3824633e-14
325.15000,9.0210628e-12,7.3770452e-14
325.16000,9.0183947e-12,7.3789352e-14
325.17000,9.0255676e-12,7.3854042e-14
325.18000,9.0276805e-12,7.3811356e-14
325.19000,9.0182655e-12,7.3647521e-14
325.20000,9.0082553e-12,7.3443717e-14
325.21000,9.0055599e-12,7.3270706e-14
325.22000,9.0203211e-12,7.3225809e-14
325.23000,9.0404349e-12,7.3303798e-14
325.24000,9.0450779e-12,7.3489351e-14
