wave,flux,fluxerr
320.00000,1.2892867e-11,2.2584565e-13
320.01000,1.2896635e-11,2.2491890e-13
320.02000,1.2945158e-11,2.2398173e-13
320.03000,1.3048861e-11,2.2528074e-13
320.04000,1.3203122e-11,2.2653616e-13
320.05000,1.3332981e-11,2.2672332e-13
320.06000,1.3439618e-11,2.2780120e-13
320.07000,1.3550671e-11,2.2886568e-13
320.08000,1.3644765e-11,2.2998714e-13
320.09000,1.3805343e-11,2.3206164e-13
320.10000,1.3997849e-11,2.3418900e-13
320.11000,1.4138778e-11,2.3599816e-13
320.12000,1.4248068e-11,2.3733379e-13
320.13000,1.4259649e-11,2.3757095e-13
320.14000,1.4135225e-11,2.3627514e-13
320.15000,1.3996659e-11,2.3481250e-13
320.16000,1.3875673e-11,2.3362111e-13
320.17000,1.3762790e-11,2.3252635e-13
320.18000,1.3670473e-11,2.3167907e-13
320.19000,1.3572992e-11,2.3096488e-13
320.20000,1.3526091e-11,2.3072544e-13
320.21000,1.3488617e-11,2.3059227e-13
320.22000,1.3310909e-11,2.2923102e-13
320.23000,1.3040661e-11,2.2679424e-13
320.24000,1.2813002e-11,2.2411595e-13
320.25000,1.2687955e-11,2.2207525e-13
320.26000,1.2640396e-11,2.2119938e-13
320.27000,1.2618806e-11,2.2107011e-13
320.28000,1.2652281e-11,2.2157305e-13
320.29000,1.2728077e-11,2.2261889e-13
320.30000,1.2852696e-11,2.2388297e-13
320.31000,1.3067016e-11,2.2529722e-13
320.32000,1.3318904e-11,2.2692387e-13
320.33000,1.3567781e-11,2.2864897e-13
320.34000,1.3769568e-11,2.3008939e-13
320.35000,1.3924825e-11,2.3147325e-13
320.36000,1.4098124e-11,2.3312933e-13
320.37000,1.4235125e-11,2.3433980e-13
320.38000,1.4309825e-11,2.3489562e-13
320.39000,1.4383694e-11,2.3557212e-13
320.40000,1.4497719e-11,2.3658238e-13
320.41000,1.4653373e-11,2.3800747e-13
320.42000,1.4776226e-11,2.3951666e-13
320.43000,1.4851276e-11,2.4046298e-13
320.44000,1.4845933e-11,2.4009901e-13
320.45000,1.4746667e-11,2.3883081e-13
320.46000,1.4656542e-11,2.3795233e-13
320.47000,1.4596434e-11,2.3767883e-13
320.48000,1.4494681e-11,2.3730087e-13
320.49000,1.4337319e-11,2.3658805e-13
320.50000,1.4160559e-11,2.3553334e-13
320.51000,1.4029647e-11,2.3437583e-13
320.52000,1.4001379e-11,2.3346003e-13
320.53000,1.4055520e-11,2.3321980e-13
320.54000,1.4130291e-11,2.3390187e-13
320.55000,1.4202094e-11,2.3487739e-13
320.56000,1.4297417e-11,2.3614076e-13
320.57000,1.4391714e-11,2.3744779e-13
320.58000,1.4473247e-11,2.3836659e-13
320.59000,1.4579667e-11,2.3904621e-13
320.60000,1.4724658e-11,2.3996063e-13
320.61000,1.4864945e-11,2.4108201e-13
320.62000,1.4942178e-11,2.4210861e-13
320.63000,1.4970225e-11,2.4295422e-13
320.64000,1.5036681e-11,2.4408816e-13
320.65000,1.5134679e-11,2.4493452e-13
320.66000,1.5180852e-11,2.4509213e-13
320.67000,1.5211500e-11,2.4495855e-13
320.68000,1.5264834e-11,2.4528562e-13
320.69000,1.5267148e-11,2.4558104e-13
320.70000,1.5210450e-11,2.4526390e-13
320.71000,1.5149594e-11,2.4539010e-13
320.72000,1.5087878e-11,2.4555007e-13
320.73000,1.4925969e-11,2.4424141e-13
320.74000,1.4652671e-11,2.4189448e-13
320.75000,1.4386025e-11,2.3959644e-13
320.76000,1.4161789e-11,2.3728662e-13
320.77000,1.3985602e-11,2.3558034e-13
320.78000,1.3803755e-11,2.3410189e-13
320.79000,1.3576142e-11,2.3164961e-13
320.80000,1.3306882e-11,2.2868802e-13
320.81000,1.2997106e-11,2.2610893e-13
320.82000,1.2625706e-11,2.2340664e-13
320.83000,1.2245801e-11,2.1991657e-13
320.84000,1.1979401e-11,2.1683279e-13
320.85000,1.1861449e-11,2.1527170e-13
320.86000,1.1795369e-11,2.1418023e-13
320.87000,1.1781484e-11,2.1369177e-13
320.88000,1.1843828e-11,2.1464938e-13
320.89000,1.1877920e-11,2.1559007e-13
320.90000,1.1835450e-11,2.1477905e-13
320.91000,1.1784344e-11,2.1293584e-13
320.92000,1.1774337e-11,2.1148940e-13
320.93000,1.1812805e-11,2.1086236e-13
320.94000,1.1890792e-11,2.1110312e-13
320.95000,1.1953827e-11,2.1156959e-13
320.96000,1.1947638e-11,2.1142572e-13
320.97000,1.1897104e-11,2.1073174e-13
320.98000,1.1876273e-11,2.1047041e-13
320.99000,1.1929519e-11,2.1113310e-13
321.00000,1.2059018e-11,2.1253041e-13
321.01000,1.2181078e-11,2.1390579e-13
321.02000,1.2233724e-11,2.1509099e-13
321.03000,1.2225358e-11,2.1632960e-13
321.04000,1.2158094e-11,2.1618403e-13
321.05000,1.2079903e-11,2.1417784e-13
321.06000,1.2027243e-11,2.1208448e-13
321.07000,1.1946621e-11,2.1073434e-13
321.08000,1.1805731e-11,2.0941098e-13
321.09000,1.1675645e-11,2.0844690e-13
321.10000,1.1634246e-11,2.0846814e-13
321.11000,1.1685008e-11,2.0854845e-13
321.12000,1.1815280e-11,2.0899262e-13
321.13000,1.1925073e-11,2.0998429e-13
321.14000,1.1935942e-11,2.1072807e-13
321.15000,1.1945635e-11,2.1073149e-13
321.16000,1.2027741e-11,2.1026327e-13
321.17000,1.2069787e-11,2.0992861e-13
321.18000,1.2034073e-11,2.0949600e-13
321.19000,1.1996642e-11,2.0881781e-13
321.20000,1.1905180e-11,2.0814357e-13
321.21000,1.1723430e-11,2.0715694e-13
321.22000,1.1540062e-11,2.0606562e-13
321.23000,1.1492174e-11,2.0633081e-13
321.24000,1.1587121e-11,2.0737191e-13
321.25000,1.1684813e-11,2.0783517e-13
321.26000,1.1766535e-11,2.0804148e-13
321.27000,1.1856981e-11,2.0819649e-13
321.28000,1.1887426e-11,2.0846016e-13
321.29000,1.1814633e-11,2.0806510e-13
321.30000,1.1650258e-11,2.0661905e-13
321.31000,1.1454567e-11,2.0445206e-13
321.32000,1.1298789e-11,2.0242142e-13
321.33000,1.1217427e-11,2.0118248e-13
321.34000,1.1163064e-11,2.0061739e-13
321.35000,1.1074783e-11,2.0005223e-13
321.36000,1.0990166e-11,1.9968448e-13
321.37000,1.0969642e-11,1.9986416e-13
321.38000,1.1057624e-11,2.0049363e-13
321.39000,1.1220353e-11,2.0092378e-13
321.40000,1.1438180e-11,2.0143285e-13
321.41000,1.1696264e-11,2.0267435e-13
321.42000,1.1949912e-11,2.0461073e-13
321.43000,1.2141352e-11,2.0648256e-13
321.44000,1.2260829e-11,2.0749071e-13
321.45000,1.2367652e-11,2.0887288e-13
321.46000,1.2469060e-11,2.1112992e-13
321.47000,1.2568484e-11,2.1222927e-13
321.48000,1.2741866e-11,2.1212610e-13
321.49000,1.3018551e-11,2.1272517e-13
321.50000,1.3314443e-11,2.1394197e-13
321.51000,1.3513883e-11,2.1508808e-13
321.52000,1.3632161e-11,2.1627817e-13
321.53000,1.3692385e-11,2.1680116e-13
321.54000,1.3682195e-11,2.1629368e-13
321.55000,1.3593060e-11,2.1528016e-13
321.56000,1.3447905e-11,2.1382612e-13
321.57000,1.3244818e-11,2.1145299e-13
321.58000,1.2910494e-11,2.0798086e-13
321.59000,1.2497160e-11,2.0424000e-13
321.60000,1.2161580e-11,2.0133189e-13
321.61000,1.1859651e-11,1.9912815e-13
321.62000,1.1507076e-11,1.9675917e-13
321.63000,1.1132104e-11,1.9411395e-13
321.64000,1.0834101e-11,1.9189238e-13
321.65000,1.0646680e-11,1.9020782e-13
321.66000,1.0523033e-11,1.8881373e-13
321.67000,1.0472716e-11,1.8832756e-13
321.68000,1.0495482e-11,1.8889465e-13
321.69000,1.0524490e-11,1.8958958e-13
321.70000,1.0523347e-11,1.8978085e-13
321.71000,1.0493908e-11,1.8938051e-13
321.72000,1.0552433e-11,1.8953150e-13
321.73000,1.0757108e-11,1.9111364e-13
321.74000,1.1081748e-11,1.9433209e-13
321.75000,1.1492468e-11,1.9882292e-13
321.76000,1.1921719e-11,2.0337376e-13
321.77000,1.2384180e-11,2.0749754e-13
321.78000,1.2864848e-11,2.1145960e-13
321.79000,1.3246899e-11,2.1470756e-13
321.80000,1.3532573e-11,2.1710028e-13
321.81000,1.3767186e-11,2.1908870e-13
321.82000,1.3973189e-11,2.2089053e-13
321.83000,1.4130181e-11,2.2222563e-13
321.84000,1.4192236e-11,2.2292743e-13
321.85000,1.4179897e-11,2.2318491e-13
321.86000,1.4129483e-11,2.2302216e-13
321.87000,1.4049028e-11,2.2233749e-13
321.88000,1.3939471e-11,2.2125896e-13
321.89000,1.3837707e-11,2.2054426e-13
321.90000,1.3811258e-11,2.2105815e-13
321.91000,1.3918197e-11,2.2267048e-13
321.92000,1.4048662e-11,2.2406333e-13
321.93000,1.4098155e-11,2.2456669e-13
321.94000,1.4075763e-11,2.2424608e-13
321.95000,1.4009954e-11,2.2347291e-13
321.96000,1.3975679e-11,2.2307271e-13
321.97000,1.4005419e-11,2.2320410e-13
321.98000,1.4054643e-11,2.2338236e-13
321.99000,1.4126602e-11,2.2362946e-13
322.00000,1.4260766e-11,2.2409025e-13
322.01000,1.4370423e-11,2.2448087e-13
322.02000,1.4371676e-11,2.2420597e-13
322.03000,1.4364190e-11,2.2342632e-13
322.04000,1.4439328e-11,2.2409043e-13
322.05000,1.4503742e-11,2.2427127e-13
322.06000,1.4512174e-11,2.2379757e-13
322.07000,1.4487558e-11,2.2465781e-13
322.08000,1.4370196e-11,2.2380930e-13
322.09000,1.4157430e-11,2.1975313e-13
322.10000,1.3928608e-11,2.1606797e-13
322.11000,1.3709328e-11,2.1537773e-13
322.12000,1.3486644e-11,2.1622062e-13
322.13000,1.3331732e-11,2.1563757e-13
322.14000,1.3272411e-11,2.1312998e-13
322.15000,1.3168715e-11,2.0975529e-13
322.16000,1.2947984e-11,2.0609390e-13
322.17000,1.2689161e-11,2.0276835e-13
322.18000,1.2511701e-11,2.0057250e-13
322.19000,1.2427224e-11,1.9979796e-13
322.20000,1.2423135e-11,2.0049307e-13
322.21000,1.2425275e-11,2.0224219e-13
322.22000,1.2444993e-11,2.0513989e-13
322.23000,1.2511783e-11,2.0800381e-13
322.24000,1.2599873e-11,2.0848537e-13
322.25000,1.2766469e-11,2.0741839e-13
322.26000,1.2996335e-11,2.0761117e-13
322.27000,1.3220758e-11,2.0994182e-13
322.28000,1.3438477e-11,2.1296760e-13
322.29000,1.3582335e-11,2.1394678e-13
322.30000,1.3610756e-11,2.1405256e-13
322.31000,1.3598836e-11,2.1527188e-13
322.32000,1.3564688e-11,2.1573821e-13
322.33000,1.3548480e-11,2.1577181e-13
322.34000,1.3607306e-11,2.1627265e-13
322.35000,1.3731105e-11,2.1652948e-13
322.36000,1.3886660e-11,2.1722703e-13
322.37000,1.4006045e-11,2.1799480e-13
322.38000,1.3981997e-11,2.1830012e-13
322.39000,1.3889874e-11,2.1811734e-13
322.40000,1.3872953e-11,2.1829080e-13
322.41000,1.3869699e-11,2.1850333e-13
322.42000,1.3791928e-11,2.1806766e-13
322.43000,1.3677192e-11,2.1761745e-13
322.44000,1.3565811e-11,2.1763676e-13
322.45000,1.3449894e-11,2.1752634e-13
322.46000,1.3330551e-11,2.1688041e-13
322.47000,1.3181386e-11,2.1526990e-13
322.48000,1.3048474e-11,2.1340952e-13
322.49000,1.2997374e-11,2.1247556e-13
322.50000,1.3000559e-11,2.1236510e-13
322.51000,1.3036079e-11,2.1296872e-13
322.52000,1.3091556e-11,2.1398713e-13
322.53000,1.3117445e-11,2.1474810e-13
322.54000,1.3057334e-11,2.1451979e-13
322.55000,1.2966957e-11,2.1326778e-13
322.56000,1.2883006e-11,2.1159932e-13
322.57000,1.2775109e-11,2.1027920e-13
322.58000,1.2654306e-11,2.0983503e-13
322.59000,1.2595739e-11,2.1003859e-13
322.60000,1.2632766e-11,2.1050684e-13
322.61000,1.2711548e-11,2.1119424e-13
322.62000,1.2795067e-11,2.1189085e-13
322.63000,1.2835476e-11,2.1211413e-13
322.64000,1.2790397e-11,2.1163057e-13
322.65000,1.2698210e-11,2.1076542e-13
322.66000,1.2550469e-11,2.0942471e-13
322.67000,1.2350634e-11,2.0762158e-13
322.68000,1.2164463e-11,2.0605645e-13
322.69000,1.1989657e-11,2.0470766e-13
322.70000,1.1786020e-11,2.0311078e-13
322.71000,1.1578612e-11,2.0147093e-13
322.72000,1.1381781e-11,1.9984071e-13
322.73000,1.1173890e-11,1.9790214e-13
322.74000,1.0996134e-11,1.9622702e-13
322.75000,1.0902372e-11,1.9548790e-13
322.76000,1.0855050e-11,1.9538540e-13
322.77000,1.0798014e-11,1.9544083e-13
322.78000,1.0708309e-11,1.9524122e-13
322.79000,1.0591267e-11,1.9477586e-13
322.80000,1.0412452e-11,1.9360387e-13
322.81000,1.0140259e-11,1.9114144e-13
322.82000,9.8320919e-12,1.8831049e-13
322.83000,9.6004019e-12,1.8639012e-13
322.84000,9.5490331e-12,1.8565788e-13
322.85000,9.6732227e-12,1.8604845e-13
322.86000,9.8663698e-12,1.8752131e-13
322.87000,1.0004605e-11,1.8911641e-13
322.88000,1.0022770e-11,1.8970462e-13
322.89000,9.9796063e-12,1.8940771e-13
322.90000,9.9791924e-12,1.8898203e-13
322.91000,1.0061073e-11,1.8912150e-13
322.92000,1.0212184e-11,1.9012000e-13
322.93000,1.0388112e-11,1.9177606e-13
322.94000,1.0551579e-11,1.9364213e-13
322.95000,1.0759339e-11,1.9591260e-13
322.96000,1.1017952e-11,1.9807270e-13
322.97000,1.1219453e-11,1.9930777e-13
322.98000,1.1340729e-11,1.9964778e-13
322.99000,1.1533258e-11,2.0060800e-13
323.00000,1.1830510e-11,2.0239575e-13
323.01000,1.2125340e-11,2.0415139e-13
323.02000,1.2309161e-11,2.0534369e-13
323.03000,1.2370544e-11,2.0570822e-13
323.04000,1.2345973e-11,2.0549591e-13
323.05000,1.2289215e-11,2.0551712e-13
323.06000,1.2220514e-11,2.0527761e-13
323.07000,1.2156057e-11,2.0424682e-13
323.08000,1.2129709e-11,2.0337689e-13
323.09000,1.2135896e-11,2.0312112e-13
323.10000,1.2118692e-11,2.0226126e-13
323.11000,1.2056182e-11,2.0057947e-13
323.12000,1.1951349e-11,1.9935359e-13
323.13000,1.1853934e-11,1.9952338e-13
323.14000,1.1817308e-11,2.0045291e-13
323.15000,1.1769027e-11,1.9993918e-13
323.16000,1.1653225e-11,1.9807661e-13
323.17000,1.1561857e-11,1.9677327e-13
323.18000,1.1515395e-11,1.9603456e-13
323.19000,1.1454690e-11,1.9518074e-13
323.20000,1.1404369e-11,1.9484820e-13
323.21000,1.1448336e-11,1.9589937e-13
323.22000,1.1541409e-11,1.9754641e-13
323.23000,1.1580808e-11,1.9813632e-13
323.24000,1.1605020e-11,1.9752249e-13
323.25000,1.1689769e-11,1.9698046e-13
323.26000,1.1775064e-11,1.9697533e-13
323.27000,1.1771388e-11,1.9700633e-13
323.28000,1.1694833e-11,1.9704675e-13
323.29000,1.1656556e-11,1.9780307e-13
323.30000,1.1675565e-11,1.9873829e-13
323.31000,1.1707844e-11,1.9857036e-13
323.32000,1.1715932e-11,1.9685800e-13
323.33000,1.1622584e-11,1.9406656e-13
323.34000,1.1424396e-11,1.9114646e-13
323.35000,1.1251995e-11,1.8921243e-13
323.36000,1.1191870e-11,1.8866172e-13
323.37000,1.1198643e-11,1.8921920e-13
323.38000,1.1213138e-11,1.9038591e-13
323.39000,1.1201768e-11,1.9077349e-13
323.40000,1.1154600e-11,1.8931587e-13
323.41000,1.1126156e-11,1.8760955e-13
323.42000,1.1147233e-11,1.8714148e-13
323.43000,1.1195628e-11,1.8759071e-13
323.44000,1.1324315e-11,1.8831401e-13
323.45000,1.1568592e-11,1.8959472e-13
323.46000,1.1843201e-11,1.9192751e-13
323.47000,1.2103642e-11,1.9439452e-13
323.48000,1.2342795e-11,1.9570763e-13
323.49000,1.2511400e-11,1.9642384e-13
323.50000,1.2612614e-11,1.9714230e-13
323.51000,1.2695337e-11,1.9730194e-13
323.52000,1.2796669e-11,1.9773649e-13
323.53000,1.2850144e-11,1.9819783e-13
323.54000,1.2777863e-11,1.9723048e-13
323.55000,1.2656279e-11,1.9576787e-13
323.56000,1.2522381e-11,1.9417353e-13
323.57000,1.2325830e-11,1.9217638e-13
323.58000,1.2101241e-11,1.9016338e-13
323.59000,1.1945078e-11,1.8857315e-13
323.60000,1.1862924e-11,1.8763869e-13
323.61000,1.1763998e-11,1.8667526e-13
323.62000,1.1652071e-11,1.8545156e-13
323.63000,1.1597215e-11,1.8447928e-13
323.64000,1.1569595e-11,1.8378969e-13
323.65000,1.1517732e-11,1.8304947e-13
323.66000,1.1495775e-11,1.8274203e-13
323.67000,1.1546978e-11,1.8308331e-13
323.68000,1.1645691e-11,1.8369332e-13
323.69000,1.1784244e-11,1.8454850e-13
323.70000,1.1984553e-11,1.8585520e-13
323.71000,1.2262071e-11,1.8771620e-13
323.72000,1.2574004e-11,1.8988285e-13
323.73000,1.2845315e-11,1.9167626e-13
323.74000,1.3059361e-11,1.9300739e-13
323.75000,1.3192321e-11,1.9417194e-13
323.76000,1.3217389e-11,1.9472677e-13
323.77000,1.3171440e-11,1.9439815e-13
323.78000,1.3046578e-11,1.9358943e-13
323.79000,1.2838589e-11,1.9240897e-13
323.80000,1.2606129e-11,1.9078338e-13
323.81000,1.2396940e-11,1.8893381e-13
323.82000,1.2218665e-11,1.8724009e-13
323.83000,1.2063904e-11,1.8582572e-13
323.84000,1.1892000e-11,1.8409060e-13
323.85000,1.1706881e-11,1.8216023e-13
323.86000,1.1565897e-11,1.8097543e-13
323.87000,1.1470342e-11,1.8035049e-13
323.88000,1.1349526e-11,1.7938771e-13
323.89000,1.1223675e-11,1.7841905e-13
323.90000,1.1200512e-11,1.7826646e-13
323.91000,1.1257082e-11,1.7866709e-13
323.92000,1.1350073e-11,1.7935048e-13
323.93000,1.1462312e-11,1.8041237e-13
323.94000,1.1581647e-11,1.8158610e-13
323.95000,1.1748548e-11,1.8316449e-13
323.96000,1.2029036e-11,1.8581298e-13
323.97000,1.2385303e-11,1.8902686e-13
323.98000,1.2761926e-11,1.9229295e-13
323.99000,1.3132888e-11,1.9545482e-13
324.00000,1.3474762e-11,1.9820241e-13
324.01000,1.3778319e-11,2.0040015e-13
324.02000,1.4067185e-11,2.0218673e-13
324.03000,1.4310176e-11,2.0330273e-13
324.04000,1.4463121e-11,2.0392146e-13
324.05000,1.4590305e-11,2.0487939e-13
324.06000,1.4656583e-11,2.0573641e-13
324.07000,1.4525799e-11,2.0529520e-13
324.08000,1.4217452e-11,2.0342391e-13
324.09000,1.3853490e-11,2.0090948e-13
324.10000,1.3529095e-11,1.9834943e-13
324.11000,1.3219991e-11,1.9573481e-13
324.12000,1.2912820e-11,1.9315771e-13
324.13000,1.2666802e-11,1.9101409e-13
324.14000,1.2536368e-11,1.8968362e-13
324.15000,1.2556121e-11,1.8937319e-13
324.16000,1.2604277e-11,1.8939248e-13
324.17000,1.2544328e-11,1.8874901e-13
324.18000,1.2426238e-11,1.8750564e-13
324.19000,1.2377374e-11,1.8665726e-13
324.20000,1.2369379e-11,1.8634109e-13
324.21000,1.2327585e-11,1.8606049e-13
324.22000,1.2311714e-11,1.8603460e-13
324.23000,1.2332378e-11,1.8601907e-13
324.24000,1.2362080e-11,1.8579447e-13
324.25000,1.2414421e-11,1.8584595e-13
324.26000,1.2466882e-11,1.8605691e-13
324.27000,1.2569590e-11,1.8650677e-13
324.28000,1.2752984e-11,1.8761460e-13
324.29000,1.2924697e-11,1.8871313e-13
324.30000,1.3005715e-11,1.8908531e-13
324.31000,1.3002717e-11,1.8850524e-13
324.32000,1.3014285e-11,1.8775180e-13
324.33000,1.3052467e-11,1.8766479e-13
324.34000,1.3047508e-11,1.8689921e-13
324.35000,1.3049620e-11,1.8694650e-13
324.36000,1.3103478e-11,1.8800081e-13
324.37000,1.3200770e-11,1.8789485e-13
324.38000,1.3355726e-11,1.8837389e-13
324.39000,1.3555172e-11,1.9117822e-13
324.40000,1.3724583e-11,1.9368336e-13
324.41000,1.3841859e-11,1.9350460e-13
324.42000,1.3982702e-11,1.9244528e-13
324.43000,1.4122303e-11,1.9215870e-13
324.44000,1.4221381e-11,1.9267713e-13
324.45000,1.4352972e-11,1.9434075e-13
324.46000,1.4561925e-11,1.9735278e-13
324.47000,1.4745889e-11,2.0009775e-13
324.48000,1.4825368e-11,2.0064598e-13
324.49000,1.4862570e-11,1.9997672e-13
324.50000,1.4888339e-11,1.9931777e-13
324.51000,1.4878953e-11,1.9865996e-13
324.52000,1.4836600e-11,1.9807112e-13
324.53000,1.4798033e-11,1.9817376e-13
324.54000,1.4798666e-11,1.9959533e-13
324.55000,1.4806722e-11,2.0121320e-13
324.56000,1.4820252e-11,2.0120197e-13
324.57000,1.4839555e-11,2.0027949e-13
324.58000,1.4787069e-11,2.0040252e-13
324.59000,1.4649460e-11,2.0099506e-13
324.60000,1.4449620e-11,1.9984285e-13
324.61000,1.4186183e-11,1.9777488e-13
324.62000,1.3888994e-11,1.9640401e-13
324.63000,1.3585930e-11,1.9477392e-13
324.64000,1.3262967e-11,1.9301142e-13
324.65000,1.2916887e-11,1.9109916e-13
324.66000,1.2622555e-11,1.8909455e-13
324.67000,1.2444978e-11,1.8766200e-13
324.68000,1.2308349e-11,1.8649280e-13
324.69000,1.2150897e-11,1.8538019e-13
324.70000,1.1970802e-11,1.8417106e-13
324.71000,1.1798210e-11,1.8315964e-13
324.72000,1.1650194e-11,1.8245129e-13
324.73000,1.1443917e-11,1.8137614e-13
324.74000,1.1180733e-11,1.7974431e-13
324.75000,1.0977476e-11,1.7819599e-13
324.76000,1.0865108e-11,1.7715274e-13
324.77000,1.0824532e-11,1.7687385e-13
324.78000,1.0891766e-11,1.7756543e-13
324.79000,1.1039772e-11,1.7874515e-13
324.80000,1.1198090e-11,1.8004266e-13
324.81000,1.1314884e-11,1.8141389e-13
324.82000,1.1359551e-11,1.8237576e-13
324.83000,1.1365384e-11,1.8278498e-13
324.84000,1.1374916e-11,1.8305712e-13
324.85000,1.1393853e-11,1.8327512e-13
324.86000,1.1389936e-11,1.8326094e-13
324.87000,1.1346398e-11,1.8310920e-13
324.88000,1.1353883e-11,1.8332541e-13
324.89000,1.1439538e-11,1.8395115e-13
324.90000,1.1590075e-11,1.8503222e-13
324.91000,1.1797880e-11,1.8681212e-13
324.92000,1.2007415e-11,1.8874340e-13
324.93000,1.2242470e-11,1.9080237e-13
324.94000,1.2475633e-11,1.9295236e-13
324.95000,1.2578442e-11,1.9408322e-13
324.96000,1.2575268e-11,1.9430362e-13
324.97000,1.2599306e-11,1.9439168e-13
324.98000,1.2654330e-11,1.9448454e-13
324.99000,1.2667616e-11,1.9481242e-13
325.00000,1.2667899e-11,1.9552517e-13
325.01000,1.2701594e-11,1.9667600e-13
325.02000,1.2749044e-11,1.9804617e-13
325.03000,1.2768028e-11,1.9897244e-13
325.04000,1.2787541e-11,1.9942037e-13
325.05000,1.2860629e-11,1.9984395e-13
325.06000,1.2855773e-11,1.9955826e-13
325.07000,1.2677097e-11,1.9817656e-13
325.08000,1.2491907e-11,1.9630801e-13
325.09000,1.2412674e-11,1.9399478e-13
325.10000,1.2385467e-11,1.9215552e-13
325.11000,1.2418031e-11,1.9184124e-13
325.12000,1.2517713e-11,1.9254588e-13
325.13000,1.2619848e-11,1.9331262e-13
325.14000,1.2673475e-11,1.9372857e-13
325.15000,1.2663038e-11,1.9350714e-13
325.16000,1.2631319e-11,1.9304282e-13
325.17000,1.2584614e-11,1.9238630e-13
325.18000,1.2474055e-11,1.9114913e-13
325.19000,1.2346079e-11,1.9001814e-13
325.20000,1.2320913e-11,1.8996417e-13
325.21000,1.2411951e-11,1.9078075e-13
325.22000,1.2486563e-11,1.9135507e-13
325.23000,1.2470640e-11,1.9113836e-13
325.24000,1.2475110e-11,1.9083930e-13
