wave,flux,fluxerr
320.00000,5.5695180e-11,8.4653365e-13
320.01000,5.5350068e-11,8.3621065e-13
320.02000,5.5522350e-11,8.3698155e-13
320.03000,5.6087527e-11,8.4537380e-13
320.04000,5.7037750e-11,8.5077135e-13
320.05000,5.8035719e-11,8.5539621e-13
320.06000,5.8897235e-11,8.6539379e-13
320.07000,5.9886087e-11,8.7462594e-13
320.08000,6.0908435e-11,8.8436746e-13
320.09000,6.2097634e-11,8.9617651e-13
320.10000,6.3670852e-11,9.0986271e-13
320.11000,6.5316226e-11,9.2370655e-13
320.12000,6.7009908e-11,9.3720352e-13
320.13000,6.8587070e-11,9.5046268e-13
320.14000,6.9396699e-11,9.5763906e-13
320.15000,6.9589953e-11,9.5945828e-13
320.16000,6.9466133e-11,9.5701712e-13
320.17000,6.8878294e-11,9.4929272e-13
320.18000,6.7723408e-11,9.3891128e-13
320.19000,6.6211206e-11,9.2826553e-13
320.20000,6.4479919e-11,9.1579061e-13
320.21000,6.2929439e-11,9.0381337e-13
320.22000,6.1887259e-11,8.9616429e-13
320.23000,6.1168308e-11,8.9023106e-13
320.24000,6.0406447e-11,8.8185497e-13
320.25000,5.9514686e-11,8.7246399e-13
320.26000,5.8627590e-11,8.6387300e-13
320.27000,5.7893214e-11,8.5708952e-13
320.28000,5.7466922e-11,8.5365936e-13
320.29000,5.7340449e-11,8.5331908e-13
320.30000,5.7510309e-11,8.5485010e-13
320.31000,5.8241636e-11,8.5945844e-13
320.32000,5.9450729e-11,8.6703749e-13
320.33000,6.0993721e-11,8.7736231e-13
320.34000,6.2484880e-11,8.8935072e-13
320.35000,6.3607718e-11,9.0044617e-13
320.36000,6.4499713e-11,9.0841481e-13
320.37000,6.5595278e-11,9.1557993e-13
320.38000,6.7086403e-11,9.2599888e-13
320.39000,6.8783449e-11,9.3904687e-13
320.40000,7.0544507e-11,9.5389283e-13
320.41000,7.2374687e-11,9.6942344e-13
320.42000,7.4040372e-11,9.8179044e-13
320.43000,7.5165704e-11,9.8893196e-13
320.44000,7.5230645e-11,9.8858173e-13
320.45000,7.4422229e-11,9.8287767e-13
320.46000,7.3173637e-11,9.7457509e-13
320.47000,7.1888461e-11,9.6573033e-13
320.48000,7.0686130e-11,9.5725221e-13
320.49000,6.9349280e-11,9.4740447e-13
320.50000,6.7839646e-11,9.3631265e-13
320.51000,6.6443948e-11,9.2621319e-13
320.52000,6.5416000e-11,9.1728190e-13
320.53000,6.4776946e-11,9.0927736e-13
320.54000,6.4366971e-11,9.0459593e-13
320.55000,6.4376387e-11,9.0593114e-13
320.56000,6.4795810e-11,9.1116676e-13
320.57000,6.5344036e-11,9.1588140e-13
320.58000,6.6173498e-11,9.2143657e-13
320.59000,6.7470078e-11,9.3122399e-13
320.60000,6.8917218e-11,9.4282442e-13
320.61000,6.9964419e-11,9.5203950e-13
320.62000,7.0734298e-11,9.6029797e-13
320.63000,7.1464821e-11,9.6855922e-13
320.64000,7.1889203e-11,9.7310311e-13
320.65000,7.1970042e-11,9.7395141e-13
320.66000,7.1955033e-11,9.7235704e-13
320.67000,7.2064298e-11,9.7163344e-13
320.68000,7.2275535e-11,9.7254598e-13
320.69000,7.2506960e-11,9.7503375e-13
320.70000,7.2627532e-11,9.7709630e-13
320.71000,7.2585252e-11,9.7761287e-13
320.72000,7.2591766e-11,9.8037737e-13
320.73000,7.2620384e-11,9.8134403e-13
320.74000,7.2542957e-11,9.7835674e-13
320.75000,7.2314207e-11,9.7591336e-13
320.76000,7.1970947e-11,9.7165005e-13
320.77000,7.1114282e-11,9.6243402e-13
320.78000,6.9646712e-11,9.5330510e-13
320.79000,6.7955618e-11,9.4471260e-13
320.80000,6.6199332e-11,9.3065011e-13
320.81000,6.4191435e-11,9.1119211e-13
320.82000,6.2052738e-11,8.9299812e-13
320.83000,5.9944353e-11,8.7835987e-13
320.84000,5.7780644e-11,8.6093204e-13
320.85000,5.5648107e-11,8.3649828e-13
320.86000,5.3946639e-11,8.1540695e-13
320.87000,5.2763320e-11,8.0240321e-13
320.88000,5.2236792e-11,7.9708046e-13
320.89000,5.2390003e-11,7.9948602e-13
320.90000,5.2857888e-11,8.0685377e-13
320.91000,5.3819354e-11,8.1631420e-13
320.92000,5.5412290e-11,8.2614998e-13
320.93000,5.6996116e-11,8.3367538e-13
320.94000,5.8065453e-11,8.3754670e-13
320.95000,5.8380986e-11,8.3740661e-13
320.96000,5.7925676e-11,8.3278111e-13
320.97000,5.7147907e-11,8.2655855e-13
320.98000,5.6381576e-11,8.2140353e-13
320.99000,5.5605649e-11,8.1658381e-13
321.00000,5.4804579e-11,8.1161926e-13
321.01000,5.3732930e-11,8.0539562e-13
321.02000,5.2456910e-11,7.9864192e-13
321.03000,5.1606427e-11,7.9448366e-13
321.04000,5.1236949e-11,7.8923357e-13
321.05000,5.1156468e-11,7.8200729e-13
321.06000,5.1410625e-11,7.7939588e-13
321.07000,5.1884024e-11,7.8221581e-13
321.08000,5.2349980e-11,7.8557646e-13
321.09000,5.2822796e-11,7.9080633e-13
321.10000,5.3344645e-11,7.9857793e-13
321.11000,5.3748072e-11,8.0167420e-13
321.12000,5.3709330e-11,7.9768015e-13
321.13000,5.3244222e-11,7.9181429e-13
321.14000,5.2531782e-11,7.8610487e-13
321.15000,5.1700713e-11,7.7810335e-13
321.16000,5.1012471e-11,7.6869124e-13
321.17000,5.0493944e-11,7.6302486e-13
321.18000,5.0145903e-11,7.6172767e-13
321.19000,5.0097445e-11,7.6092562e-13
321.20000,5.0306277e-11,7.6222089e-13
321.21000,5.0732547e-11,7.6838933e-13
321.22000,5.1528351e-11,7.7683831e-13
321.23000,5.2512557e-11,7.8561880e-13
321.24000,5.3337354e-11,7.9225006e-13
321.25000,5.3743317e-11,7.9351955e-13
321.26000,5.3494340e-11,7.9026158e-13
321.27000,5.2848796e-11,7.8456791e-13
321.28000,5.2246509e-11,7.7968374e-13
321.29000,5.1761914e-11,7.7560225e-13
321.30000,5.1190181e-11,7.6989995e-13
321.31000,5.0451736e-11,7.6223148e-13
321.32000,4.9584947e-11,7.5355622e-13
321.33000,4.8549431e-11,7.4512522e-13
321.34000,4.7480321e-11,7.3765526e-13
321.35000,4.6529668e-11,7.3044647e-13
321.36000,4.5960855e-11,7.2480439e-13
321.37000,4.5995989e-11,7.2336371e-13
321.38000,4.6555137e-11,7.2589650e-13
321.39000,4.7349663e-11,7.2980462e-13
321.40000,4.8060657e-11,7.3285701e-13
321.41000,4.8713371e-11,7.3641676e-13
321.42000,4.9537163e-11,7.4312412e-13
321.43000,5.0314226e-11,7.5052772e-13
321.44000,5.0678797e-11,7.5470093e-13
321.45000,5.0967139e-11,7.5757277e-13
321.46000,5.1689758e-11,7.6368550e-13
321.47000,5.3137982e-11,7.7440529e-13
321.48000,5.5014963e-11,7.8676703e-13
321.49000,5.6870328e-11,7.9802775e-13
321.50000,5.8302793e-11,8.0701294e-13
321.51000,5.9156258e-11,8.1377917e-13
321.52000,5.9701103e-11,8.1887686e-13
321.53000,6.0290994e-11,8.2314404e-13
321.54000,6.0971285e-11,8.2649375e-13
321.55000,6.1819211e-11,8.3005096e-13
321.56000,6.2893700e-11,8.3556562e-13
321.57000,6.3649115e-11,8.3854220e-13
321.58000,6.3565143e-11,8.3534885e-13
321.59000,6.2895646e-11,8.2962256e-13
321.60000,6.1861098e-11,8.2342829e-13
321.61000,6.0553093e-11,8.1696295e-13
321.62000,5.8755876e-11,8.0629599e-13
321.63000,5.6295016e-11,7.8809645e-13
321.64000,5.3570136e-11,7.6610895e-13
321.65000,5.1096901e-11,7.4585301e-13
321.66000,4.8827479e-11,7.2740192e-13
321.67000,4.6756212e-11,7.1089038e-13
321.68000,4.5147437e-11,6.9852846e-13
321.69000,4.4041892e-11,6.9024001e-13
321.70000,4.3346339e-11,6.8460867e-13
321.71000,4.3199725e-11,6.8230140e-13
321.72000,4.3919187e-11,6.8743647e-13
321.73000,4.5554596e-11,7.0204660e-13
321.74000,4.7523961e-11,7.2041028e-13
321.75000,4.9504564e-11,7.3906915e-13
321.76000,5.1679227e-11,7.5917212e-13
321.77000,5.4102449e-11,7.7993957e-13
321.78000,5.6746583e-11,8.0049816e-13
321.79000,5.9318425e-11,8.1950731e-13
321.80000,6.1526729e-11,8.3587108e-13
321.81000,6.3518074e-11,8.5143301e-13
321.82000,6.5553782e-11,8.6823347e-13
321.83000,6.7318005e-11,8.8307748e-13
321.84000,6.8490599e-11,8.9408815e-13
321.85000,6.9406296e-11,9.0370549e-13
321.86000,7.0232997e-11,9.1153405e-13
321.87000,7.0404179e-11,9.1230725e-13
321.88000,6.9671885e-11,9.0588397e-13
321.89000,6.8533134e-11,8.9822214e-13
321.90000,6.7775529e-11,8.9466879e-13
321.91000,6.7521486e-11,8.9441210e-13
321.92000,6.6838065e-11,8.9080639e-13
321.93000,6.5619449e-11,8.8322880e-13
321.94000,6.4439880e-11,8.7465040e-13
321.95000,6.3681172e-11,8.6803767e-13
321.96000,6.3390878e-11,8.6455031e-13
321.97000,6.3192334e-11,8.6256057e-13
321.98000,6.3521319e-11,8.6535560e-13
321.99000,6.4742156e-11,8.7368837e-13
322.00000,6.6113379e-11,8.8249035e-13
322.01000,6.7106912e-11,8.8751589e-13
322.02000,6.8256014e-11,8.9461241e-13
322.03000,6.9646356e-11,9.0150892e-13
322.04000,7.0927734e-11,9.1021671e-13
322.05000,7.2048394e-11,9.1923795e-13
322.06000,7.2841432e-11,9.2079972e-13
322.07000,7.2886328e-11,9.2129993e-13
322.08000,7.2189407e-11,9.1916947e-13
322.09000,7.1003606e-11,9.0406120e-13
322.10000,6.9627638e-11,8.8521559e-13
322.11000,6.8005100e-11,8.7584535e-13
322.12000,6.6070999e-11,8.7233025e-13
322.13000,6.4022942e-11,8.6126226e-13
322.14000,6.2042934e-11,8.3880782e-13
322.15000,6.0302307e-11,8.1488287e-13
322.16000,5.8921464e-11,7.9599916e-13
322.17000,5.7910778e-11,7.8248707e-13
322.18000,5.7208393e-11,7.7430417e-13
322.19000,5.6700569e-11,7.7046126e-13
322.20000,5.6171461e-11,7.6903262e-13
322.21000,5.5392137e-11,7.6796644e-13
322.22000,5.4546879e-11,7.6802190e-13
322.23000,5.4142350e-11,7.7286480e-13
322.24000,5.4350047e-11,7.7964684e-13
322.25000,5.4759974e-11,7.7913602e-13
322.26000,5.5139512e-11,7.7272675e-13
322.27000,5.5723191e-11,7.7276855e-13
322.28000,5.6695247e-11,7.8521828e-13
322.29000,5.7916205e-11,8.0011851e-13
322.30000,5.9079869e-11,8.0776129e-13
322.31000,6.0024445e-11,8.1598984e-13
322.32000,6.0950704e-11,8.2749379e-13
322.33000,6.1856668e-11,8.3351908e-13
322.34000,6.2679789e-11,8.3733865e-13
322.35000,6.3637455e-11,8.4239414e-13
322.36000,6.4787276e-11,8.4912552e-13
322.37000,6.5859631e-11,8.5767520e-13
322.38000,6.6453853e-11,8.6389756e-13
322.39000,6.6494356e-11,8.6664916e-13
322.40000,6.6181495e-11,8.6628116e-13
322.41000,6.5765520e-11,8.6493411e-13
322.42000,6.5337951e-11,8.6280035e-13
322.43000,6.5023056e-11,8.6172353e-13
322.44000,6.4789092e-11,8.6218553e-13
322.45000,6.4369433e-11,8.6052277e-13
322.46000,6.3730631e-11,8.5579414e-13
322.47000,6.3176384e-11,8.5077149e-13
322.48000,6.2641625e-11,8.4527427e-13
322.49000,6.1917990e-11,8.3856680e-13
322.50000,6.1251390e-11,8.3400530e-13
322.51000,6.0300543e-11,8.2858645e-13
322.52000,5.8922003e-11,8.1889453e-13
322.53000,5.7590135e-11,8.0852347e-13
322.54000,5.6592607e-11,8.0076759e-13
322.55000,5.5930967e-11,7.9473320e-13
322.56000,5.5679071e-11,7.9087400e-13
322.57000,5.5912591e-11,7.9135343e-13
322.58000,5.6329996e-11,7.9499826e-13
322.59000,5.6461905e-11,7.9809881e-13
322.60000,5.6277928e-11,7.9842851e-13
322.61000,5.6073711e-11,7.9674773e-13
322.62000,5.6159438e-11,7.9627577e-13
322.63000,5.6442244e-11,7.9770276e-13
322.64000,5.6759723e-11,7.9975358e-13
322.65000,5.7117840e-11,8.0222540e-13
322.66000,5.7507810e-11,8.0540665e-13
322.67000,5.7703909e-11,8.0625421e-13
322.68000,5.7479678e-11,8.0408063e-13
322.69000,5.6670690e-11,7.9943068e-13
322.70000,5.5191061e-11,7.8945039e-13
322.71000,5.3249156e-11,7.7349708e-13
322.72000,5.1243409e-11,7.5632963e-13
322.73000,4.9295403e-11,7.4000306e-13
322.74000,4.7543550e-11,7.2553116e-13
322.75000,4.6355124e-11,7.1674579e-13
322.76000,4.5739965e-11,7.1300436e-13
322.77000,4.5226237e-11,7.0941189e-13
322.78000,4.4463116e-11,7.0390797e-13
322.79000,4.3420992e-11,6.9693699e-13
322.80000,4.2302496e-11,6.8919592e-13
322.81000,4.1501740e-11,6.8207534e-13
322.82000,4.1040717e-11,6.7642645e-13
322.83000,4.0847008e-11,6.7374168e-13
322.84000,4.0949059e-11,6.7416313e-13
322.85000,4.1192272e-11,6.7575521e-13
322.86000,4.1159988e-11,6.7559447e-13
322.87000,4.0833036e-11,6.7326977e-13
322.88000,4.0544498e-11,6.7074910e-13
322.89000,4.0233065e-11,6.6704600e-13
322.90000,3.9796718e-11,6.6191262e-13
322.91000,3.9332322e-11,6.5735623e-13
322.92000,3.8962317e-11,6.5422251e-13
322.93000,3.8873020e-11,6.5384659e-13
322.94000,3.9208166e-11,6.5693953e-13
322.95000,3.9891929e-11,6.6296011e-13
322.96000,4.0901151e-11,6.7055530e-13
322.97000,4.2257407e-11,6.7978406e-13
322.98000,4.4043239e-11,6.9252256e-13
322.99000,4.6364038e-11,7.1063728e-13
323.00000,4.8823037e-11,7.3021511e-13
323.01000,5.0856227e-11,7.4463727e-13
323.02000,5.2532221e-11,7.5729211e-13
323.03000,5.4014460e-11,7.6863474e-13
323.04000,5.4920431e-11,7.7324507e-13
323.05000,5.5102610e-11,7.7392277e-13
323.06000,5.5260295e-11,7.7612905e-13
323.07000,5.5817902e-11,7.7857170e-13
323.08000,5.6390994e-11,7.7978257e-13
323.09000,5.6517244e-11,7.7969851e-13
323.10000,5.6145826e-11,7.7624022e-13
323.11000,5.5587493e-11,7.7045910e-13
323.12000,5.5105098e-11,7.6717459e-13
323.13000,5.4850566e-11,7.6851581e-13
323.14000,5.4730489e-11,7.7098720e-13
323.15000,5.4437523e-11,7.6753856e-13
323.16000,5.4204651e-11,7.6164338e-13
323.17000,5.4606976e-11,7.6207845e-13
323.18000,5.5448142e-11,7.6759677e-13
323.19000,5.6129369e-11,7.7286798e-13
323.20000,5.6487178e-11,7.7775966e-13
323.21000,5.6480010e-11,7.8078421e-13
323.22000,5.5906722e-11,7.7709131e-13
323.23000,5.5071012e-11,7.6724518e-13
323.24000,5.4371115e-11,7.5650031e-13
323.25000,5.3824254e-11,7.4778325e-13
323.26000,5.3513282e-11,7.4314823e-13
323.27000,5.3493353e-11,7.4298265e-13
323.28000,5.3803277e-11,7.4616918e-13
323.29000,5.4541507e-11,7.5284960e-13
323.30000,5.5602768e-11,7.6303647e-13
323.31000,5.6576082e-11,7.7403715e-13
323.32000,5.6963354e-11,7.8005230e-13
323.33000,5.6731554e-11,7.7756397e-13
323.34000,5.6523104e-11,7.7083463e-13
323.35000,5.6447496e-11,7.6419987e-13
323.36000,5.6109830e-11,7.5834597e-13
323.37000,5.5243568e-11,7.5186994e-13
323.38000,5.3603091e-11,7.4019402e-13
323.39000,5.1369413e-11,7.2452263e-13
323.40000,4.8974835e-11,7.0697277e-13
323.41000,4.6541075e-11,6.8437557e-13
323.42000,4.4304948e-11,6.6133123e-13
323.43000,4.2857477e-11,6.4734764e-13
323.44000,4.2479095e-11,6.4480191e-13
323.45000,4.3037972e-11,6.4968125e-13
323.46000,4.4478300e-11,6.5962835e-13
323.47000,4.6607769e-11,6.7575086e-13
323.48000,4.9100229e-11,6.9573496e-13
323.49000,5.1768203e-11,7.1456725e-13
323.50000,5.4510682e-11,7.3253511e-13
323.51000,5.7307634e-11,7.5183480e-13
323.52000,5.9985776e-11,7.6922841e-13
323.53000,6.2008125e-11,7.8208546e-13
323.54000,6.3094801e-11,7.8897339e-13
323.55000,6.3127093e-11,7.8801700e-13
323.56000,6.2284539e-11,7.8167320e-13
323.57000,6.0670514e-11,7.6892294e-13
323.58000,5.8209966e-11,7.4913418e-13
323.59000,5.5114919e-11,7.2472479e-13
323.60000,5.1922825e-11,7.0018183e-13
323.61000,4.8999224e-11,6.7825963e-13
323.62000,4.6768195e-11,6.6031261e-13
323.63000,4.5448625e-11,6.4819041e-13
323.64000,4.4770947e-11,6.4121171e-13
323.65000,4.4577676e-11,6.3845754e-13
323.66000,4.5084887e-11,6.4119264e-13
323.67000,4.6219369e-11,6.4926691e-13
323.68000,4.7949788e-11,6.6224218e-13
323.69000,5.0294902e-11,6.7952533e-13
323.70000,5.2648815e-11,6.9647738e-13
323.71000,5.4660754e-11,7.1028814e-13
323.72000,5.6567010e-11,7.2268577e-13
323.73000,5.8349273e-11,7.3437774e-13
323.74000,6.0226802e-11,7.4769998e-13
323.75000,6.1919036e-11,7.6017198e-13
323.76000,6.2909878e-11,7.6815864e-13
323.77000,6.3522467e-11,7.7431210e-13
323.78000,6.4006295e-11,7.8021618e-13
323.79000,6.4304716e-11,7.8472105e-13
323.80000,6.4280119e-11,7.8524197e-13
323.81000,6.3678118e-11,7.7963179e-13
323.82000,6.2527590e-11,7.6965336e-13
323.83000,6.1043591e-11,7.5647100e-13
323.84000,5.9301680e-11,7.4094143e-13
323.85000,5.7332421e-11,7.2603026e-13
323.86000,5.5203677e-11,7.1238315e-13
323.87000,5.2969170e-11,6.9737023e-13
323.88000,5.0440900e-11,6.7865117e-13
323.89000,4.7663995e-11,6.5777746e-13
323.90000,4.5267086e-11,6.3976484e-13
323.91000,4.3637288e-11,6.2758937e-13
323.92000,4.2919902e-11,6.2208548e-13
323.93000,4.3242133e-11,6.2420724e-13
323.94000,4.4462188e-11,6.3394224e-13
323.95000,4.6608236e-11,6.5189015e-13
323.96000,4.9452998e-11,6.7501339e-13
323.97000,5.2671610e-11,6.9994518e-13
323.98000,5.5937249e-11,7.2384149e-13
323.99000,5.8865236e-11,7.4413663e-13
324.00000,6.1305341e-11,7.6058208e-13
324.01000,6.3472129e-11,7.7527045e-13
324.02000,6.5326308e-11,7.8721324e-13
324.03000,6.6822959e-11,7.9612046e-13
324.04000,6.8171984e-11,8.0515986e-13
324.05000,6.9375281e-11,8.1535302e-13
324.06000,7.0045139e-11,8.2299759e-13
324.07000,7.0033200e-11,8.2486834e-13
324.08000,6.9725753e-11,8.2313784e-13
324.09000,6.9240265e-11,8.1909899e-13
324.10000,6.8281380e-11,8.1153387e-13
324.11000,6.6962398e-11,8.0214713e-13
324.12000,6.5408559e-11,7.9137227e-13
324.13000,6.3364897e-11,7.7666542e-13
324.14000,6.1218659e-11,7.6083299e-13
324.15000,5.9422868e-11,7.4719187e-13
324.16000,5.7724419e-11,7.3461454e-13
324.17000,5.6072681e-11,7.2282487e-13
324.18000,5.4840609e-11,7.1293741e-13
324.19000,5.4185251e-11,7.0602752e-13
324.20000,5.4167700e-11,7.0456628e-13
324.21000,5.4515744e-11,7.0766045e-13
324.22000,5.4813049e-11,7.1071036e-13
324.23000,5.5351931e-11,7.1424697e-13
324.24000,5.6405545e-11,7.2093215e-13
324.25000,5.7905672e-11,7.3011445e-13
324.26000,5.9505070e-11,7.3918142e-13
324.27000,6.1058877e-11,7.4814308e-13
324.28000,6.2388783e-11,7.5639404e-13
324.29000,6.3060914e-11,7.5986120e-13
324.30000,6.3218596e-11,7.5971497e-13
324.31000,6.3217882e-11,7.5724015e-13
324.32000,6.2894086e-11,7.5239111e-13
324.33000,6.1873424e-11,7.4297964e-13
324.34000,6.0367368e-11,7.3091003e-13
324.35000,5.9171202e-11,7.2488850e-13
324.36000,5.8721018e-11,7.2097828e-13
324.37000,5.8947418e-11,7.2013627e-13
324.38000,5.9685009e-11,7.2897128e-13
324.39000,6.0733475e-11,7.3857831e-13
324.40000,6.1854512e-11,7.4025312e-13
324.41000,6.3155180e-11,7.4273049e-13
324.42000,6.4809067e-11,7.5432890e-13
324.43000,6.6434208e-11,7.7175846e-13
324.44000,6.7718855e-11,7.8798298e-13
324.45000,6.8931909e-11,7.9852085e-13
324.46000,7.0207775e-11,8.0405304e-13
324.47000,7.1350363e-11,8.0836844e-13
324.48000,7.2174693e-11,8.1300840e-13
324.49000,7.2821350e-11,8.1835146e-13
324.50000,7.3423046e-11,8.2514757e-13
324.51000,7.3568881e-11,8.3051057e-13
324.52000,7.2856438e-11,8.2740730e-13
324.53000,7.1719960e-11,8.1406721e-13
324.54000,7.0771486e-11,7.9791204e-13
324.55000,7.0064519e-11,7.8678388e-13
324.56000,6.9339759e-11,7.8501765e-13
324.57000,6.8617982e-11,7.8852763e-13
324.58000,6.8481847e-11,7.9123662e-13
324.59000,6.8833953e-11,7.9106848e-13
324.60000,6.9002081e-11,7.9343172e-13
324.61000,6.8904436e-11,7.9655565e-13
324.62000,6.8667204e-11,7.9480370e-13
324.63000,6.8053770e-11,7.9189043e-13
324.64000,6.6872687e-11,7.8684201e-13
324.65000,6.5295212e-11,7.7730318e-13
324.66000,6.3433023e-11,7.6463693e-13
324.67000,6.1180834e-11,7.4855241e-13
324.68000,5.8867604e-11,7.3347146e-13
324.69000,5.6756264e-11,7.2086061e-13
324.70000,5.4800378e-11,7.0953676e-13
324.71000,5.3322794e-11,7.0074736e-13
324.72000,5.2668980e-11,6.9690242e-13
324.73000,5.2462761e-11,6.9620897e-13
324.74000,5.2242333e-11,6.9529301e-13
324.75000,5.1981798e-11,6.9363658e-13
324.76000,5.1949499e-11,6.9389434e-13
324.77000,5.2149801e-11,6.9659485e-13
324.78000,5.2198051e-11,6.9800596e-13
324.79000,5.2131998e-11,6.9794718e-13
324.80000,5.2181181e-11,6.9915366e-13
324.81000,5.2272740e-11,7.0247088e-13
324.82000,5.2155918e-11,7.0494890e-13
324.83000,5.1743309e-11,7.0383844e-13
324.84000,5.1128606e-11,7.0035942e-13
324.85000,5.0361070e-11,6.9634022e-13
324.86000,4.9568852e-11,6.9227640e-13
324.87000,4.8834043e-11,6.8795737e-13
324.88000,4.8275571e-11,6.8490264e-13
324.89000,4.8355055e-11,6.8724953e-13
324.90000,4.9192520e-11,6.9533932e-13
324.91000,5.0391789e-11,7.0558978e-13
324.92000,5.1936402e-11,7.1813079e-13
324.93000,5.3910873e-11,7.3370190e-13
324.94000,5.5936804e-11,7.4835482e-13
324.95000,5.7516674e-11,7.5796771e-13
324.96000,5.8456103e-11,7.6205209e-13
324.97000,5.8973292e-11,7.6241905e-13
324.98000,5.9252066e-11,7.6167914e-13
324.99000,5.9367763e-11,7.6271843e-13
325.00000,5.9467628e-11,7.6443837e-13
325.01000,5.9722362e-11,7.6527010e-13
325.02000,6.0042686e-11,7.6596812e-13
325.03000,6.0279656e-11,7.6625411e-13
325.04000,6.0201388e-11,7.6401762e-13
325.05000,5.9856931e-11,7.5980241e-13
325.06000,5.9553521e-11,7.5665251e-13
325.07000,5.9443594e-11,7.5667691e-13
325.08000,5.9416858e-11,7.5744605e-13
325.09000,5.9253580e-11,7.5497193e-13
325.10000,5.8820480e-11,7.4972230e-13
325.11000,5.8233740e-11,7.4401911e-13
325.12000,5.7741178e-11,7.4019976e-13
325.13000,5.7355629e-11,7.3851307e-13
325.14000,5.7321374e-11,7.3887997e-13
325.15000,5.7661567e-11,7.3983367e-13
325.16000,5.7945486e-11,7.3903355e-13
325.17000,5.7983702e-11,7.3710469e-13
325.18000,5.7936848e-11,7.3593249e-13
325.19000,5.7973331e-11,7.3594880e-13
325.20000,5.7900859e-11,7.3549657e-13
325.21000,5.7462285e-11,7.3250490e-13
325.22000,5.6617838e-11,7.2647837e-13
325.23000,5.5690790e-11,7.1929602e-13
325.24000,5.5137012e-11,7.1315295e-13
