wave,flux,fluxerr
320.00000,2.9714994e-13,5.1483714e-15
320.01000,2.8800660e-13,5.0475487e-15
320.02000,2.8205549e-13,4.9760500e-15
320.03000,2.7958740e-13,4.9384398e-15
320.04000,2.7888009e-13,4.9369416e-15
320.05000,2.8012991e-13,4.9673789e-15
320.06000,2.8463352e-13,5.0347327e-15
320.07000,2.9059732e-13,5.1124447e-15
320.08000,2.9506434e-13,5.1620732e-15
320.09000,2.9869947e-13,5.1960248e-15
320.10000,3.0419432e-13,5.2504155e-15
320.11000,3.1182825e-13,5.3266225e-15
320.12000,3.1929643e-13,5.3950728e-15
320.13000,3.2476678e-13,5.4424144e-15
320.14000,3.2982369e-13,5.4831180e-15
320.15000,3.3551169e-13,5.5224745e-15
320.16000,3.3946739e-13,5.5525157e-15
320.17000,3.4035178e-13,5.5671613e-15
320.18000,3.4018260e-13,5.5771729e-15
320.19000,3.3776328e-13,5.5638582e-15
320.20000,3.3166211e-13,5.5062401e-15
320.21000,3.2480923e-13,5.4309815e-15
320.22000,3.1950676e-13,5.3645589e-15
320.23000,3.1529622e-13,5.3107411e-15
320.24000,3.1253270e-13,5.2794150e-15
320.25000,3.1023576e-13,5.2612540e-15
320.26000,3.0615570e-13,5.2316364e-15
320.27000,3.0064624e-13,5.1821302e-15
320.28000,2.9452058e-13,5.1145787e-15
320.29000,2.8898939e-13,5.0476683e-15
320.30000,2.8557313e-13,5.0027338e-15
320.31000,2.8393567e-13,4.9753600e-15
320.32000,2.8463701e-13,4.9804475e-15
320.33000,2.8860253e-13,5.0240679e-15
320.34000,2.9436611e-13,5.0802072e-15
320.35000,3.0082161e-13,5.1394144e-15
320.36000,3.0819489e-13,5.2066700e-15
320.37000,3.1626060e-13,5.2876960e-15
320.38000,3.2481113e-13,5.3761019e-15
320.39000,3.3425182e-13,5.4636159e-15
320.40000,3.4350018e-13,5.5424380e-15
320.41000,3.5041636e-13,5.6004137e-15
320.42000,3.5581657e-13,5.6493096e-15
320.43000,3.6191374e-13,5.7055571e-15
320.44000,3.6787949e-13,5.7608738e-15
320.45000,3.7137855e-13,5.7917712e-15
320.46000,3.7238377e-13,5.8036637e-15
320.47000,3.7079257e-13,5.8033110e-15
320.48000,3.6543491e-13,5.7694035e-15
320.49000,3.5864243e-13,5.7088057e-15
320.50000,3.5266383e-13,5.6394929e-15
320.51000,3.4698813e-13,5.5735341e-15
320.52000,3.4165704e-13,5.5192793e-15
320.53000,3.3629990e-13,5.4739296e-15
320.54000,3.3121070e-13,5.4353757e-15
320.55000,3.2757935e-13,5.4103140e-15
320.56000,3.2450403e-13,5.3815553e-15
320.57000,3.2260840e-13,5.3583818e-15
320.58000,3.2250268e-13,5.3505608e-15
320.59000,3.2352261e-13,5.3634747e-15
320.60000,3.2593023e-13,5.4024365e-15
320.61000,3.3008634e-13,5.4504018e-15
320.62000,3.3548673e-13,5.5090387e-15
320.63000,3.4108436e-13,5.5573073e-15
320.64000,3.4676617e-13,5.5901301e-15
320.65000,3.5187715e-13,5.6362912e-15
320.66000,3.5590581e-13,5.6840672e-15
320.67000,3.5994955e-13,5.7195916e-15
320.68000,3.6371245e-13,5.7632346e-15
320.69000,3.6610403e-13,5.8055348e-15
320.70000,3.6888946e-13,5.8339391e-15
320.71000,3.7211838e-13,5.8513077e-15
320.72000,3.7485029e-13,5.8668926e-15
320.73000,3.7678399e-13,5.8838619e-15
320.74000,3.7688676e-13,5.8920058e-15
320.75000,3.7550151e-13,5.8700506e-15
320.76000,3.7330321e-13,5.8300762e-15
320.77000,3.6883798e-13,5.7852555e-15
320.78000,3.6169389e-13,5.7232834e-15
320.79000,3.5366190e-13,5.6533312e-15
320.80000,3.4535261e-13,5.5880199e-15
320.81000,3.3661336e-13,5.5262005e-15
320.82000,3.2718807e-13,5.4573126e-15
320.83000,3.1719276e-13,5.3628837e-15
320.84000,3.0729794e-13,5.2458629e-15
320.85000,2.9651117e-13,5.1153997e-15
320.86000,2.8568453e-13,4.9874811e-15
320.87000,2.7648722e-13,4.8804503e-15
320.88000,2.6808038e-13,4.7920184e-15
320.89000,2.6005687e-13,4.7178032e-15
320.90000,2.5456130e-13,4.6700665e-15
320.91000,2.5317626e-13,4.6623384e-15
320.92000,2.5440828e-13,4.6664439e-15
320.93000,2.5651080e-13,4.6543744e-15
320.94000,2.5910396e-13,4.6428097e-15
320.95000,2.6165421e-13,4.6525612e-15
320.96000,2.6503055e-13,4.6912663e-15
320.97000,2.6740033e-13,4.7199033e-15
320.98000,2.6584019e-13,4.7117012e-15
320.99000,2.6156134e-13,4.6867363e-15
321.00000,2.5701000e-13,4.6435040e-15
321.01000,2.5395560e-13,4.5936853e-15
321.02000,2.5201712e-13,4.5628062e-15
321.03000,2.5087260e-13,4.5532841e-15
321.04000,2.5075837e-13,4.5613899e-15
321.05000,2.5072024e-13,4.5560320e-15
321.06000,2.4995777e-13,4.5336224e-15
321.07000,2.4834750e-13,4.5160334e-15
321.08000,2.4543970e-13,4.4895169e-15
321.09000,2.4220135e-13,4.4488133e-15
321.10000,2.3989610e-13,4.4241781e-15
321.11000,2.3789086e-13,4.4102023e-15
321.12000,2.3653630e-13,4.3877086e-15
321.13000,2.3643648e-13,4.3692269e-15
321.14000,2.3694018e-13,4.3580635e-15
321.15000,2.3758365e-13,4.3532118e-15
321.16000,2.3831546e-13,4.3612061e-15
321.17000,2.3917914e-13,4.3736903e-15
321.18000,2.4058076e-13,4.3961352e-15
321.19000,2.4197089e-13,4.4197372e-15
321.20000,2.4247178e-13,4.4328491e-15
321.21000,2.4233323e-13,4.4312962e-15
321.22000,2.4226770e-13,4.4223536e-15
321.23000,2.4221283e-13,4.4131288e-15
321.24000,2.4072416e-13,4.3956249e-15
321.25000,2.3828149e-13,4.3735960e-15
321.26000,2.3628032e-13,4.3536765e-15
321.27000,2.3507520e-13,4.3368551e-15
321.28000,2.3405752e-13,4.3208341e-15
321.29000,2.3348520e-13,4.3093843e-15
321.30000,2.3445130e-13,4.3148475e-15
321.31000,2.3591539e-13,4.3279303e-15
321.32000,2.3648114e-13,4.3306692e-15
321.33000,2.3478018e-13,4.3102670e-15
321.34000,2.3104146e-13,4.2748756e-15
321.35000,2.2638619e-13,4.2351285e-15
321.36000,2.2171761e-13,4.1824775e-15
321.37000,2.1855052e-13,4.1227941e-15
321.38000,2.1680653e-13,4.0755127e-15
321.39000,2.1487725e-13,4.0423299e-15
321.40000,2.1323376e-13,4.0263556e-15
321.41000,2.1230896e-13,4.0261637e-15
321.42000,2.1312858e-13,4.0430922e-15
321.43000,2.1685820e-13,4.0832345e-15
321.44000,2.2089941e-13,4.1239511e-15
321.45000,2.2462996e-13,4.1624350e-15
321.46000,2.2901560e-13,4.2049808e-15
321.47000,2.3393838e-13,4.2354804e-15
321.48000,2.3945045e-13,4.2609741e-15
321.49000,2.4446078e-13,4.3003832e-15
321.50000,2.4993156e-13,4.3572864e-15
321.51000,2.5731066e-13,4.4267278e-15
321.52000,2.6495088e-13,4.4905674e-15
321.53000,2.7151491e-13,4.5430030e-15
321.54000,2.7785494e-13,4.5871391e-15
321.55000,2.8421663e-13,4.6278114e-15
321.56000,2.9051512e-13,4.6761741e-15
321.57000,2.9605364e-13,4.7274325e-15
321.58000,2.9959886e-13,4.7606844e-15
321.59000,3.0051725e-13,4.7747262e-15
321.60000,2.9961382e-13,4.7812259e-15
321.61000,2.9657923e-13,4.7683661e-15
321.62000,2.9053514e-13,4.7168118e-15
321.63000,2.8172700e-13,4.6320109e-15
321.64000,2.7137204e-13,4.5314455e-15
321.65000,2.6111067e-13,4.4340990e-15
321.66000,2.5087420e-13,4.3410638e-15
321.67000,2.3951922e-13,4.2404512e-15
321.68000,2.2798471e-13,4.1340675e-15
321.69000,2.1905061e-13,4.0436352e-15
321.70000,2.1398745e-13,3.9888178e-15
321.71000,2.1056254e-13,3.9562349e-15
321.72000,2.0742220e-13,3.9374517e-15
321.73000,2.0611837e-13,3.9404634e-15
321.74000,2.0653770e-13,3.9513536e-15
321.75000,2.0722374e-13,3.9603199e-15
321.76000,2.0880975e-13,3.9809785e-15
321.77000,2.1341927e-13,4.0293237e-15
321.78000,2.2147612e-13,4.1045796e-15
321.79000,2.3189885e-13,4.1988067e-15
321.80000,2.4547634e-13,4.3261321e-15
321.81000,2.6135912e-13,4.4823821e-15
321.82000,2.7535222e-13,4.6291796e-15
321.83000,2.8717402e-13,4.7594536e-15
321.84000,2.9818656e-13,4.8756687e-15
321.85000,3.0775773e-13,4.9649276e-15
321.86000,3.1668666e-13,5.0330783e-15
321.87000,3.2429942e-13,5.0888168e-15
321.88000,3.2830148e-13,5.1314687e-15
321.89000,3.2975339e-13,5.1658984e-15
321.90000,3.3016415e-13,5.1843933e-15
321.91000,3.2799937e-13,5.1706815e-15
321.92000,3.2350869e-13,5.1352781e-15
321.93000,3.2037495e-13,5.1093357e-15
321.94000,3.1994197e-13,5.0934096e-15
321.95000,3.2047587e-13,5.1046957e-15
321.96000,3.2189458e-13,5.1121708e-15
321.97000,3.2399171e-13,5.1162772e-15
321.98000,3.2532452e-13,5.1449768e-15
321.99000,3.2448974e-13,5.1298167e-15
322.00000,3.2282008e-13,5.0681957e-15
322.01000,3.2252280e-13,5.0564713e-15
322.02000,3.2455415e-13,5.1188041e-15
322.03000,3.2945869e-13,5.1856106e-15
322.04000,3.3535347e-13,5.1956541e-15
322.05000,3.4112992e-13,5.1793450e-15
322.06000,3.4737541e-13,5.1806200e-15
322.07000,3.5297577e-13,5.1993209e-15
322.08000,3.5695098e-13,5.2289944e-15
322.09000,3.5937842e-13,5.2622968e-15
322.10000,3.5913021e-13,5.2624199e-15
322.11000,3.5588247e-13,5.2157427e-15
322.12000,3.4917338e-13,5.1336703e-15
322.13000,3.3881714e-13,5.0316705e-15
322.14000,3.2754873e-13,4.9442453e-15
322.15000,3.1713889e-13,4.8907754e-15
322.16000,3.0864426e-13,4.8593344e-15
322.17000,3.0289360e-13,4.8090603e-15
322.18000,2.9811703e-13,4.7291668e-15
322.19000,2.9305135e-13,4.6736738e-15
322.20000,2.8699053e-13,4.6538316e-15
322.21000,2.7988634e-13,4.6137618e-15
322.22000,2.7239673e-13,4.5315043e-15
322.23000,2.6516805e-13,4.4607645e-15
322.24000,2.5933239e-13,4.4132103e-15
322.25000,2.5528167e-13,4.3661990e-15
322.26000,2.5385097e-13,4.3522156e-15
322.27000,2.5477189e-13,4.3666337e-15
322.28000,2.5702536e-13,4.4016355e-15
322.29000,2.6200725e-13,4.4639195e-15
322.30000,2.6957500e-13,4.5399440e-15
322.31000,2.7744007e-13,4.6069499e-15
322.32000,2.8425662e-13,4.6554695e-15
322.33000,2.9006032e-13,4.6926506e-15
322.34000,2.9446147e-13,4.7227974e-15
322.35000,2.9664629e-13,4.7433594e-15
322.36000,2.9816607e-13,4.7631169e-15
322.37000,2.9994748e-13,4.7902128e-15
322.38000,3.0239292e-13,4.8274456e-15
322.39000,3.0591055e-13,4.8676221e-15
322.40000,3.0998157e-13,4.8997028e-15
322.41000,3.1349793e-13,4.9292609e-15
322.42000,3.1559746e-13,4.9681737e-15
322.43000,3.1604898e-13,4.9921966e-15
322.44000,3.1494498e-13,4.9813263e-15
322.45000,3.1317511e-13,4.9573522e-15
322.46000,3.1083398e-13,4.9295454e-15
322.47000,3.0833234e-13,4.9036545e-15
322.48000,3.0538426e-13,4.8788847e-15
322.49000,3.0051763e-13,4.8387729e-15
322.50000,2.9483593e-13,4.7936662e-15
322.51000,2.8909998e-13,4.7499358e-15
322.52000,2.8331799e-13,4.6989944e-15
322.53000,2.7803001e-13,4.6412010e-15
322.54000,2.7456588e-13,4.5973507e-15
322.55000,2.7297667e-13,4.5761171e-15
322.56000,2.7231853e-13,4.5699450e-15
322.57000,2.7138571e-13,4.5652359e-15
322.58000,2.6990520e-13,4.5538208e-15
322.59000,2.6935771e-13,4.5520405e-15
322.60000,2.6977552e-13,4.5606172e-15
322.61000,2.7091447e-13,4.5704935e-15
322.62000,2.7157927e-13,4.5711507e-15
322.63000,2.7005824e-13,4.5603160e-15
322.64000,2.6791302e-13,4.5576919e-15
322.65000,2.6712268e-13,4.5605575e-15
322.66000,2.6711973e-13,4.5573182e-15
322.67000,2.6794338e-13,4.5633813e-15
322.68000,2.6880329e-13,4.5747419e-15
322.69000,2.6917788e-13,4.5786991e-15
322.70000,2.6893799e-13,4.5630909e-15
322.71000,2.6658001e-13,4.5214378e-15
322.72000,2.6183673e-13,4.4673971e-15
322.73000,2.5472789e-13,4.4100191e-15
322.74000,2.4586725e-13,4.3450649e-15
322.75000,2.3603066e-13,4.2620689e-15
322.76000,2.2751014e-13,4.1850863e-15
322.77000,2.2182098e-13,4.1381869e-15
322.78000,2.1634871e-13,4.0890777e-15
322.79000,2.0976324e-13,4.0174821e-15
322.80000,2.0337502e-13,3.9420272e-15
322.81000,1.9801555e-13,3.8769152e-15
322.82000,1.9337657e-13,3.8243036e-15
322.83000,1.8851421e-13,3.7761133e-15
322.84000,1.8312016e-13,3.7236473e-15
322.85000,1.7790300e-13,3.6703361e-15
322.86000,1.7318480e-13,3.6218469e-15
322.87000,1.7013259e-13,3.5903503e-15
322.88000,1.6880068e-13,3.5751677e-15
322.89000,1.6868902e-13,3.5663272e-15
322.90000,1.6982166e-13,3.5747820e-15
322.91000,1.7110138e-13,3.5896891e-15
322.92000,1.7072872e-13,3.5875883e-15
322.93000,1.6922463e-13,3.5800433e-15
322.94000,1.6935548e-13,3.5747417e-15
322.95000,1.7165637e-13,3.5781955e-15
322.96000,1.7481835e-13,3.6070001e-15
322.97000,1.8002990e-13,3.6628146e-15
322.98000,1.8734551e-13,3.7237268e-15
322.99000,1.9477996e-13,3.7853191e-15
323.00000,2.0232059e-13,3.8651764e-15
323.01000,2.1068165e-13,3.9535921e-15
323.02000,2.1933158e-13,4.0287926e-15
323.03000,2.2750446e-13,4.0957770e-15
323.04000,2.3452004e-13,4.1549432e-15
323.05000,2.4019036e-13,4.2073504e-15
323.06000,2.4584320e-13,4.2530978e-15
323.07000,2.5092197e-13,4.2751754e-15
323.08000,2.5336626e-13,4.2768886e-15
323.09000,2.5381754e-13,4.2821484e-15
323.10000,2.5402527e-13,4.2891088e-15
323.11000,2.5456379e-13,4.2919007e-15
323.12000,2.5517190e-13,4.3019540e-15
323.13000,2.5474384e-13,4.3119352e-15
323.14000,2.5330666e-13,4.3119567e-15
323.15000,2.5156032e-13,4.3012108e-15
323.16000,2.4836009e-13,4.2728446e-15
323.17000,2.4430005e-13,4.2349887e-15
323.18000,2.4220556e-13,4.2094432e-15
323.19000,2.4240342e-13,4.1972513e-15
323.20000,2.4353379e-13,4.1888044e-15
323.21000,2.4469606e-13,4.1776318e-15
323.22000,2.4498428e-13,4.1602282e-15
323.23000,2.4421985e-13,4.1454196e-15
323.24000,2.4231990e-13,4.1329412e-15
323.25000,2.4013015e-13,4.1185996e-15
323.26000,2.3962755e-13,4.1134344e-15
323.27000,2.4174865e-13,4.1415901e-15
323.28000,2.4541230e-13,4.1981092e-15
323.29000,2.4871700e-13,4.2338733e-15
323.30000,2.5077378e-13,4.2293867e-15
323.31000,2.5217640e-13,4.2182409e-15
323.32000,2.5320167e-13,4.2246121e-15
323.33000,2.5400461e-13,4.2463363e-15
323.34000,2.5422973e-13,4.2503001e-15
323.35000,2.5388770e-13,4.2332143e-15
323.36000,2.5222756e-13,4.2177826e-15
323.37000,2.4845186e-13,4.1916490e-15
323.38000,2.4328454e-13,4.1325173e-15
323.39000,2.3743010e-13,4.0566401e-15
323.40000,2.3202517e-13,3.9948887e-15
323.41000,2.2627660e-13,3.9274642e-15
323.42000,2.1992984e-13,3.8557700e-15
323.43000,2.1462498e-13,3.8047340e-15
323.44000,2.0995347e-13,3.7555779e-15
323.45000,2.0627331e-13,3.7177431e-15
323.46000,2.0485677e-13,3.7073565e-15
323.47000,2.0563072e-13,3.7130883e-15
323.48000,2.0879362e-13,3.7336926e-15
323.49000,2.1495462e-13,3.7753848e-15
323.50000,2.2336592e-13,3.8427737e-15
323.51000,2.3345809e-13,3.9260434e-15
323.52000,2.4408890e-13,4.0134069e-15
323.53000,2.5375856e-13,4.0957386e-15
323.54000,2.6177841e-13,4.1649588e-15
323.55000,2.6808121e-13,4.2136795e-15
323.56000,2.7318759e-13,4.2500299e-15
323.57000,2.7721273e-13,4.2754921e-15
323.58000,2.7802382e-13,4.2738218e-15
323.59000,2.7352066e-13,4.2289841e-15
323.60000,2.6610050e-13,4.1590384e-15
323.61000,2.5741797e-13,4.0721623e-15
323.62000,2.4633888e-13,3.9609606e-15
323.63000,2.3516399e-13,3.8539495e-15
323.64000,2.2643237e-13,3.7747309e-15
323.65000,2.2066642e-13,3.7190401e-15
323.66000,2.1690576e-13,3.6769763e-15
323.67000,2.1428075e-13,3.6492543e-15
323.68000,2.1351860e-13,3.6463412e-15
323.69000,2.1534989e-13,3.6675580e-15
323.70000,2.1952376e-13,3.7010112e-15
323.71000,2.2430366e-13,3.7376481e-15
323.72000,2.2853701e-13,3.7769654e-15
323.73000,2.3416577e-13,3.8287074e-15
323.74000,2.4262121e-13,3.8997341e-15
323.75000,2.5285002e-13,3.9859573e-15
323.76000,2.6303625e-13,4.0759181e-15
323.77000,2.7234810e-13,4.1600772e-15
323.78000,2.8009706e-13,4.2308190e-15
323.79000,2.8637383e-13,4.2889510e-15
323.80000,2.9135120e-13,4.3240291e-15
323.81000,2.9305999e-13,4.3224596e-15
323.82000,2.9046504e-13,4.2950333e-15
323.83000,2.8528959e-13,4.2770711e-15
323.84000,2.7937775e-13,4.2721096e-15
323.85000,2.7288405e-13,4.2239739e-15
323.86000,2.6425632e-13,4.1179964e-15
323.87000,2.5446068e-13,4.0050669e-15
323.88000,2.4555809e-13,3.9128095e-15
323.89000,2.3717231e-13,3.8337523e-15
323.90000,2.2871971e-13,3.7609623e-15
323.91000,2.2088018e-13,3.6961112e-15
323.92000,2.1365039e-13,3.6371736e-15
323.93000,2.0798017e-13,3.5932425e-15
323.94000,2.0478511e-13,3.5698179e-15
323.95000,2.0321933e-13,3.5621721e-15
323.96000,2.0412095e-13,3.5725788e-15
323.97000,2.0887464e-13,3.6087343e-15
323.98000,2.1709418e-13,3.6751202e-15
323.99000,2.2744339e-13,3.7627115e-15
324.00000,2.3853789e-13,3.8577455e-15
324.01000,2.5054991e-13,3.9607054e-15
324.02000,2.6295404e-13,4.0657474e-15
324.03000,2.7493509e-13,4.1733534e-15
324.04000,2.8685658e-13,4.2904482e-15
324.05000,2.9788864e-13,4.3946804e-15
324.06000,3.0719305e-13,4.4725768e-15
324.07000,3.1491246e-13,4.5298686e-15
324.08000,3.2170318e-13,4.5765855e-15
324.09000,3.2741607e-13,4.6158606e-15
324.10000,3.2941927e-13,4.6340581e-15
324.11000,3.2582272e-13,4.6163065e-15
324.12000,3.2010924e-13,4.5788648e-15
324.13000,3.1471573e-13,4.5315411e-15
324.14000,3.0726970e-13,4.4607045e-15
324.15000,2.9702505e-13,4.3686455e-15
324.16000,2.8542750e-13,4.2649253e-15
324.17000,2.7582283e-13,4.1771264e-15
324.18000,2.6983465e-13,4.1228581e-15
324.19000,2.6586144e-13,4.0884647e-15
324.20000,2.6233790e-13,4.0574633e-15
324.21000,2.5988388e-13,4.0383406e-15
324.22000,2.5926066e-13,4.0336606e-15
324.23000,2.5954102e-13,4.0358795e-15
324.24000,2.5962470e-13,4.0320144e-15
324.25000,2.5927788e-13,4.0075481e-15
324.26000,2.5909870e-13,4.0003567e-15
324.27000,2.6019612e-13,4.0022277e-15
324.28000,2.6341941e-13,4.0059531e-15
324.29000,2.6941049e-13,4.0569504e-15
324.30000,2.7671769e-13,4.1227877e-15
324.31000,2.8321285e-13,4.1418744e-15
324.32000,2.8847143e-13,4.1426873e-15
324.33000,2.9246054e-13,4.1698365e-15
324.34000,2.9460510e-13,4.2222623e-15
324.35000,2.9422475e-13,4.2737500e-15
324.36000,2.9142895e-13,4.2888864e-15
324.37000,2.8833307e-13,4.2634525e-15
324.38000,2.8746744e-13,4.2346380e-15
324.39000,2.8913513e-13,4.2290123e-15
324.40000,2.9169391e-13,4.2505096e-15
324.41000,2.9552450e-13,4.3044973e-15
324.42000,3.0112907e-13,4.3647740e-15
324.43000,3.0741180e-13,4.4031450e-15
324.44000,3.1347510e-13,4.4127980e-15
324.45000,3.1885080e-13,4.4051570e-15
324.46000,3.2391844e-13,4.4084826e-15
324.47000,3.2961358e-13,4.4531063e-15
324.48000,3.3607080e-13,4.5409963e-15
324.49000,3.4238452e-13,4.6128483e-15
324.50000,3.4832713e-13,4.6358616e-15
324.51000,3.5419817e-13,4.6689584e-15
324.52000,3.5846730e-13,4.7217409e-15
324.53000,3.5985654e-13,4.7362856e-15
324.54000,3.6032344e-13,4.7427326e-15
324.55000,3.6051253e-13,4.7595995e-15
324.56000,3.5925568e-13,4.7554279e-15
324.57000,3.5627123e-13,4.7421511e-15
324.58000,3.5284600e-13,4.7283451e-15
324.59000,3.5018908e-13,4.7175006e-15
324.60000,3.4829514e-13,4.7094071e-15
324.61000,3.4657666e-13,4.7086159e-15
324.62000,3.4434950e-13,4.7126292e-15
324.63000,3.4140574e-13,4.7097370e-15
324.64000,3.3797995e-13,4.6971105e-15
324.65000,3.3300637e-13,4.6627317e-15
324.66000,3.2525806e-13,4.5994070e-15
324.67000,3.1434625e-13,4.5215902e-15
324.68000,3.0249665e-13,4.4446778e-15
324.69000,2.9177210e-13,4.3684657e-15
324.70000,2.8204691e-13,4.2937082e-15
324.71000,2.7401172e-13,4.2325341e-15
324.72000,2.6882251e-13,4.1894525e-15
324.73000,2.6487697e-13,4.1520755e-15
324.74000,2.6014544e-13,4.1079027e-15
324.75000,2.5500825e-13,4.0587487e-15
324.76000,2.4986090e-13,4.0052901e-15
324.77000,2.4605422e-13,3.9628664e-15
324.78000,2.4379812e-13,3.9398217e-15
324.79000,2.4059995e-13,3.9134638e-15
324.80000,2.3623802e-13,3.8750475e-15
324.81000,2.3318002e-13,3.8452117e-15
324.82000,2.3277205e-13,3.8362087e-15
324.83000,2.3413256e-13,3.8428161e-15
324.84000,2.3619389e-13,3.8586995e-15
324.85000,2.3878320e-13,3.8810986e-15
324.86000,2.4032396e-13,3.9014034e-15
324.87000,2.3937274e-13,3.9071260e-15
324.88000,2.3722006e-13,3.8892538e-15
324.89000,2.3461797e-13,3.8651521e-15
324.90000,2.3133754e-13,3.8460347e-15
324.91000,2.2843221e-13,3.8296784e-15
324.92000,2.2728660e-13,3.8197630e-15
324.93000,2.2874156e-13,3.8257952e-15
324.94000,2.3306167e-13,3.8520937e-15
324.95000,2.4045255e-13,3.9016160e-15
324.96000,2.4907355e-13,3.9650035e-15
324.97000,2.5696401e-13,4.0342216e-15
324.98000,2.6267485e-13,4.0959543e-15
324.99000,2.6656208e-13,4.1397752e-15
325.00000,2.6928345e-13,4.1647221e-15
325.01000,2.7078084e-13,4.1766413e-15
325.02000,2.7147511e-13,4.1900201e-15
325.03000,2.7306783e-13,4.2147309e-15
325.04000,2.7593361e-13,4.2312328e-15
325.05000,2.7942710e-13,4.2439545e-15
325.06000,2.8217555e-13,4.2652658e-15
325.07000,2.8323771e-13,4.2778869e-15
325.08000,2.8334273e-13,4.2814417e-15
325.09000,2.8281492e-13,4.2759475e-15
325.10000,2.8129297e-13,4.2574085e-15
325.11000,2.7762241e-13,4.2230813e-15
325.12000,2.7212551e-13,4.1745668e-15
325.13000,2.6673031e-13,4.1256459e-15
325.14000,2.6291105e-13,4.0866298e-15
325.15000,2.6138925e-13,4.0677282e-15
325.16000,2.6160328e-13,4.0672175e-15
325.17000,2.6393922e-13,4.0819632e-15
325.18000,2.6647305e-13,4.0961160e-15
325.19000,2.6680164e-13,4.0977455e-15
325.20000,2.6577705e-13,4.0910880e-15
325.21000,2.6448715e-13,4.0823681e-15
325.22000,2.6220165e-13,4.0554104e-15
325.23000,2.5901255e-13,4.0123409e-15
325.24000,2.5665253e-13,3.9839464e-15
