wave,flux,fluxerr
300.00000,1.8209220e-19,9.8115244e-18
300.10000,1.9148328e-19,9.8115244e-18
300.20000,2.0109368e-19,9.8115244e-18
300.30000,2.1034607e-19,9.8115244e-18
300.40000,2.1830345e-19,9.8115244e-18
300.50000,2.2369860e-19,9.8115244e-18
300.60000,2.2517111e-19,9.8115244e-18
300.70000,2.2165340e-19,9.8115244e-18
300.80000,2.1277052e-19,9.8115244e-18
300.90000,1.9910549e-19,9.8115244e-18
301.00000,1.8223185e-19,9.8115244e-18
301.10000,1.6450216e-19,9.8115244e-18
301.20000,1.4866241e-19,9.8115244e-18
301.30000,1.3740608e-19,9.8115244e-18
301.40000,1.3297410e-19,9.8115244e-18
301.50000,1.3686364e-19,9.8115244e-18
301.60000,1.4965624e-19,9.8115244e-18
301.70000,1.7094652e-19,9.8115244e-18
301.80000,1.9935561e-19,9.8115244e-18
301.90000,2.3263847e-19,9.8115244e-18
302.00000,2.6791020e-19,9.8115244e-18
302.10000,3.0200142e-19,9.8115244e-18
302.20000,3.3190647e-19,9.8115244e-18
302.30000,3.5523821e-19,9.8115244e-18
302.40000,3.7058256e-19,9.8115244e-18
302.50000,3.7766941e-19,9.8115244e-18
302.60000,3.7732995e-19,9.8115244e-18
302.70000,3.7126480e-19,9.8115244e-18
302.80000,3.6168007e-19,9.8115244e-18
302.90000,3.5086179e-19,9.8115244e-18
303.00000,3.4076343e-19,9.8115244e-18
303.10000,3.3268445e-19,9.8115244e-18
303.20000,3.2710998e-19,9.8115244e-18
303.30000,3.2375133e-19,9.8115244e-18
303.40000,3.2177414e-19,9.8115244e-18
303.50000,3.2014478e-19,9.8115244e-18
303.60000,3.1799069e-19,9.8115244e-18
303.70000,3.1487045e-19,9.8115244e-18
303.80000,3.1088122e-19,9.8115244e-18
303.90000,3.0658104e-19,9.8115244e-18
304.00000,3.0275868e-19,9.8115244e-18
304.10000,3.0013196e-19,9.8115244e-18
304.20000,2.9908474e-19,9.8115244e-18
304.30000,2.9954812e-19,9.8115244e-18
304.40000,3.0108676e-19,9.8115244e-18
304.50000,3.0317744e-19,9.8115244e-18
304.60000,3.0558847e-19,9.8115244e-18
304.70000,3.0871729e-19,9.8115244e-18
304.80000,3.1373823e-19,9.8115244e-18
304.90000,3.2246063e-19,9.8115244e-18
305.00000,3.3689116e-19,9.8115244e-18
305.10000,3.5861088e-19,9.8115244e-18
305.20000,3.8817781e-19,9.8115244e-18
305.30000,4.2480042e-19,9.8115244e-18
305.40000,4.6645427e-19,9.8115244e-18
305.50000,5.1043916e-19,9.8115244e-18
305.60000,5.5416441e-19,9.8115244e-18
305.70000,5.9581609e-19,9.8115244e-18
305.80000,6.3459365e-19,9.8115244e-18
305.90000,6.7041016e-19,9.8115244e-18
306.00000,7.0322915e-19,9.8115244e-18
306.10000,7.3240577e-19,9.8115244e-18
306.20000,7.5639469e-19,9.8115244e-18
306.30000,7.7298380e-19,9.8115244e-18
306.40000,7.7993128e-19,9.8115244e-18
306.50000,7.7568885e-19,9.8115244e-18
306.60000,7.5988713e-19,9.8115244e-18
306.70000,7.3342606e-19,9.8115244e-18
306.80000,6.9823677e-19,9.8115244e-18
306.90000,6.5692484e-19,9.8115244e-18
307.00000,6.1249318e-19,9.8115244e-18
307.10000,5.6820370e-19,9.8115244e-18
307.20000,5.2747283e-19,9.8115244e-18
307.30000,4.9362291e-19,9.8115244e-18
307.40000,4.6938267e-19,9.8115244e-18
307.50000,4.5620934e-19,9.8115244e-18
307.60000,4.5368661e-19,9.8115244e-18
307.70000,4.5931903e-19,9.8115244e-18
307.80000,4.6894052e-19,9.8115244e-18
307.90000,4.7771634e-19,9.8115244e-18
308.00000,4.8145475e-19,9.8115244e-18
308.10000,4.7778452e-19,9.8115244e-18
308.20000,4.6677530e-19,9.8115244e-18
308.30000,4.5077591e-19,9.8115244e-18
308.40000,4.3353840e-19,9.8115244e-18
308.50000,4.1896297e-19,9.8115244e-18
308.60000,4.0993354e-19,9.8115244e-18
308.70000,4.0766601e-19,9.8115244e-18
308.80000,4.1177973e-19,9.8115244e-18
308.90000,4.2101343e-19,9.8115244e-18
309.00000,4.3425243e-19,9.8115244e-18
309.10000,4.5141722e-19,9.8115244e-18
309.20000,4.7382968e-19,9.8115244e-18
309.30000,5.0389515e-19,9.8115244e-18
309.40000,5.4422310e-19,9.8115244e-18
309.50000,5.9653647e-19,9.8115244e-18
309.60000,6.6079573e-19,9.8115244e-18
309.70000,7.3486225e-19,9.8115244e-18
309.80000,8.1480150e-19,9.8115244e-18
309.90000,8.9568687e-19,9.8115244e-18
310.00000,9.7261025e-19,9.8115244e-18
310.10000,1.0415847e-18,9.8115244e-18
310.20000,1.1001122e-18,9.8115244e-18
310.30000,1.1473294e-18,9.8115244e-18
310.40000,1.1837752e-18,9.8115244e-18
310.50000,1.2109349e-18,9.8115244e-18
310.60000,1.2307701e-18,9.8115244e-18
310.70000,1.2454437e-18,9.8115244e-18
310.80000,1.2573422e-18,9.8115244e-18
310.90000,1.2693158e-18,9.8115244e-18
311.00000,1.2848844e-18,9.8115244e-18
311.10000,1.3081044e-18,9.8115244e-18
311.20000,1.3429362e-18,9.8115244e-18
311.30000,1.3922182e-18,9.8115244e-18
311.40000,1.4565928e-18,9.8115244e-18
311.50000,1.5337842e-18,9.8115244e-18
311.60000,1.6184955e-18,9.8115244e-18
311.70000,1.7029618e-18,9.8115244e-18
311.80000,1.7780364e-18,9.8115244e-18
311.90000,1.8346389e-18,9.8115244e-18
312.00000,1.8654079e-18,9.8115244e-18
312.10000,1.8663611e-18,9.8115244e-18
312.20000,1.8382391e-18,9.8115244e-18
312.30000,1.7870844e-18,9.8115244e-18
312.40000,1.7236375e-18,9.8115244e-18
312.50000,1.6614209e-18,9.8115244e-18
312.60000,1.6138471e-18,9.8115244e-18
312.70000,1.5911314e-18,9.8115244e-18
312.80000,1.5979617e-18,9.8115244e-18
312.90000,1.6326621e-18,9.8115244e-18
313.00000,1.6880621e-18,9.8115244e-18
313.10000,1.7536998e-18,9.8115244e-18
313.20000,1.8186104e-18,9.8115244e-18
313.30000,1.8739069e-18,9.8115244e-18
313.40000,1.9145923e-18,9.8115244e-18
313.50000,1.9403524e-18,9.8115244e-18
313.60000,1.9553097e-18,9.8115244e-18
313.70000,1.9668402e-18,9.8115244e-18
313.80000,1.9836502e-18,9.8115244e-18
313.90000,2.0134621e-18,9.8115244e-18
314.00000,2.0608351e-18,9.8115244e-18
314.10000,2.1257220e-18,9.8115244e-18
314.20000,2.2032136e-18,9.8115244e-18
314.30000,2.2845546e-18,9.8115244e-18
314.40000,2.3590982e-18,9.8115244e-18
314.50000,2.4165940e-18,9.8115244e-18
314.60000,2.4491967e-18,9.8115244e-18
314.70000,2.4527812e-18,9.8115244e-18
314.80000,2.4274087e-18,9.8115244e-18
314.90000,2.3769647e-18,9.8115244e-18
315.00000,2.3080835e-18,9.8115244e-18
315.10000,2.2285605e-18,9.8115244e-18
315.20000,2.1455938e-18,9.8115244e-18
315.30000,2.0643538e-18,9.8115244e-18
315.40000,1.9874037e-18,9.8115244e-18
315.50000,1.9152640e-18,9.8115244e-18
315.60000,1.8479639e-18,9.8115244e-18
315.70000,1.7869401e-18,9.8115244e-18
315.80000,1.7364051e-18,9.8115244e-18
315.90000,1.7034598e-18,9.8115244e-18
316.00000,1.6967305e-18,9.8115244e-18
316.10000,1.7239202e-18,9.8115244e-18
316.20000,1.7891035e-18,9.8115244e-18
316.30000,1.8906852e-18,9.8115244e-18
316.40000,2.0206972e-18,9.8115244e-18
316.50000,2.1656696e-18,9.8115244e-18
316.60000,2.3088534e-18,9.8115244e-18
316.70000,2.4332132e-18,9.8115244e-18
316.80000,2.5244208e-18,9.8115244e-18
316.90000,2.5731020e-18,9.8115244e-18
317.00000,2.5758386e-18,9.8115244e-18
317.10000,2.5348593e-18,9.8115244e-18
317.20000,2.4567853e-18,9.8115244e-18
317.30000,2.3510436e-18,9.8115244e-18
317.40000,2.2284727e-18,9.8115244e-18
317.50000,2.1003116e-18,9.8115244e-18
317.60000,1.9774061e-18,9.8115244e-18
317.70000,1.8693416e-18,9.8115244e-18
317.80000,1.7833871e-18,9.8115244e-18
317.90000,1.7234683e-18,9.8115244e-18
318.00000,1.6896094e-18,9.8115244e-18
318.10000,1.6782151e-18,9.8115244e-18
318.20000,1.6832194e-18,9.8115244e-18
318.30000,1.6977223e-18,9.8115244e-18
318.40000,1.7155280e-18,9.8115244e-18
318.50000,1.7321033e-18,9.8115244e-18
318.60000,1.7448316e-18,9.8115244e-18
318.70000,1.7527966e-18,9.8115244e-18
318.80000,1.7564825e-18,9.8115244e-18
318.90000,1.7576458e-18,9.8115244e-18
319.00000,1.7593219e-18,9.8115244e-18
319.10000,1.7656977e-18,9.8115244e-18
319.20000,1.7815738e-18,9.8115244e-18
319.30000,1.8113554e-18,9.8115244e-18
319.40000,1.8578046e-18,9.8115244e-18
319.50000,1.9209514e-18,9.8115244e-18
319.60000,1.9975244e-18,9.8115244e-18
319.70000,2.0812352e-18,9.8115244e-18
319.80000,2.1637510e-18,9.8115244e-18
319.90000,2.2362740e-18,9.8115244e-18
320.00000,2.2914359e-18,9.8115244e-18
320.10000,2.3251204e-18,9.8115244e-18
320.20000,2.3377075e-18,9.8115244e-18
320.30000,2.3342042e-18,9.8115244e-18
320.40000,2.3229319e-18,9.8115244e-18
320.50000,2.3129119e-18,9.8115244e-18
320.60000,2.3106796e-18,9.8115244e-18
320.70000,2.3176637e-18,9.8115244e-18
320.80000,2.3292185e-18,9.8115244e-18
320.90000,2.3358424e-18,9.8115244e-18
321.00000,2.3262567e-18,9.8115244e-18
321.10000,2.2912571e-18,9.8115244e-18
321.20000,2.2269441e-18,9.8115244e-18
321.30000,2.1362138e-18,9.8115244e-18
321.40000,2.0281080e-18,9.8115244e-18
321.50000,1.9154152e-18,9.8115244e-18
321.60000,1.8114485e-18,9.8115244e-18
321.70000,1.7270402e-18,9.8115244e-18
321.80000,1.6685472e-18,9.8115244e-18
321.90000,1.6372432e-18,9.8115244e-18
322.00000,1.6300730e-18,9.8115244e-18
322.10000,1.6414229e-18,9.8115244e-18
322.20000,1.6653482e-18,9.8115244e-18
322.30000,1.6975865e-18,9.8115244e-18
322.40000,1.7367272e-18,9.8115244e-18
322.50000,1.7841479e-18,9.8115244e-18
322.60000,1.8427414e-18,9.8115244e-18
322.70000,1.9149151e-18,9.8115244e-18
322.80000,2.0006469e-18,9.8115244e-18
322.90000,2.0963789e-18,9.8115244e-18
323.00000,2.1952099e-18,9.8115244e-18
323.10000,2.2883313e-18,9.8115244e-18
323.20000,2.3671944e-18,9.8115244e-18
323.30000,2.4256860e-18,9.8115244e-18
323.40000,2.4616900e-18,9.8115244e-18
323.50000,2.4777181e-18,9.8115244e-18
323.60000,2.4806017e-18,9.8115244e-18
323.70000,2.4803903e-18,9.8115244e-18
323.80000,2.4886161e-18,9.8115244e-18
323.90000,2.5160871e-18,9.8115244e-18
324.00000,2.5705054e-18,9.8115244e-18
324.10000,2.6544500e-18,9.8115244e-18
324.20000,2.7644123e-18,9.8115244e-18
324.30000,2.8914127e-18,9.8115244e-18
324.40000,3.0232164e-18,9.8115244e-18
324.50000,3.1475240e-18,9.8115244e-18
324.60000,3.2551033e-18,9.8115244e-18
324.70000,3.3418612e-18,9.8115244e-18
324.80000,3.4092892e-18,9.8115244e-18
324.90000,3.4632879e-18,9.8115244e-18
325.00000,3.5118424e-18,9.8115244e-18
325.10000,3.5622574e-18,9.8115244e-18
325.20000,3.6187152e-18,9.8115244e-18
325.30000,3.6808002e-18,9.8115244e-18
325.40000,3.7433576e-18,9.8115244e-18
325.50000,3.7976526e-18,9.8115244e-18
325.60000,3.8334262e-18,9.8115244e-18
325.70000,3.8412897e-18,9.8115244e-18
325.80000,3.8150192e-18,9.8115244e-18
325.90000,3.7535205e-18,9.8115244e-18
326.00000,3.6622666e-18,9.8115244e-18
326.10000,3.5538028e-18,9.8115244e-18
326.20000,3.4467000e-18,9.8115244e-18
326.30000,3.3625157e-18,9.8115244e-18
326.40000,3.3210306e-18,9.8115244e-18
326.50000,3.3349831e-18,9.8115244e-18
326.60000,3.4061181e-18,9.8115244e-18
326.70000,3.5241403e-18,9.8115244e-18
326.80000,3.6691220e-18,9.8115244e-18
326.90000,3.8165872e-18,9.8115244e-18
327.00000,3.9435411e-18,9.8115244e-18
327.10000,4.0335603e-18,9.8115244e-18
327.20000,4.0796482e-18,9.8115244e-18
327.30000,4.0844909e-18,9.8115244e-18
327.40000,4.0585444e-18,9.8115244e-18
327.50000,4.0167958e-18,9.8115244e-18
327.60000,3.9750825e-18,9.8115244e-18
327.70000,3.9466957e-18,9.8115244e-18
327.80000,3.9398212e-18,9.8115244e-18
327.90000,3.9562189e-18,9.8115244e-18
328.00000,3.9913668e-18,9.8115244e-18
328.10000,4.0360384e-18,9.8115244e-18
328.20000,4.0789385e-18,9.8115244e-18
328.30000,4.1097200e-18,9.8115244e-18
328.40000,4.1215671e-18,9.8115244e-18
328.50000,4.1126415e-18,9.8115244e-18
328.60000,4.0860262e-18,9.8115244e-18
328.70000,4.0482580e-18,9.8115244e-18
328.80000,4.0069869e-18,9.8115244e-18
328.90000,3.9686101e-18,9.8115244e-18
329.00000,3.9367693e-18,9.8115244e-18
329.10000,3.9122785e-18,9.8115244e-18
329.20000,3.8944144e-18,9.8115244e-18
329.30000,3.8828247e-18,9.8115244e-18
329.40000,3.8789675e-18,9.8115244e-18
329.50000,3.8862605e-18,9.8115244e-18
329.60000,3.9088629e-18,9.8115244e-18
329.70000,3.9497701e-18,9.8115244e-18
329.80000,4.0091818e-18,9.8115244e-18
329.90000,4.0837732e-18,9.8115244e-18
330.00000,4.1668925e-18,9.8115244e-18
330.10000,4.2493295e-18,9.8115244e-18
330.20000,4.3203870e-18,9.8115244e-18
330.30000,4.3693191e-18,9.8115244e-18
330.40000,4.3873079e-18,9.8115244e-18
330.50000,4.3697988e-18,9.8115244e-18
330.60000,4.3184433e-18,9.8115244e-18
330.70000,4.2416361e-18,9.8115244e-18
330.80000,4.1530675e-18,9.8115244e-18
330.90000,4.0686648e-18,9.8115244e-18
331.00000,4.0031713e-18,9.8115244e-18
331.10000,3.9677803e-18,9.8115244e-18
331.20000,3.9695594e-18,9.8115244e-18
331.30000,4.0122990e-18,9.8115244e-18
331.40000,4.0976143e-18,9.8115244e-18
331.50000,4.2251266e-18,9.8115244e-18
331.60000,4.3913339e-18,9.8115244e-18
331.70000,4.5878425e-18,9.8115244e-18
331.80000,4.8002999e-18,9.8115244e-18
331.90000,5.0092287e-18,9.8115244e-18
332.00000,5.1930705e-18,9.8115244e-18
332.10000,5.3326029e-18,9.8115244e-18
332.20000,5.4151121e-18,9.8115244e-18
332.30000,5.4367020e-18,9.8115244e-18
332.40000,5.4018872e-18,9.8115244e-18
332.50000,5.3207704e-18,9.8115244e-18
332.60000,5.2050769e-18,9.8115244e-18
332.70000,5.0646901e-18,9.8115244e-18
332.80000,4.9059525e-18,9.8115244e-18
332.90000,4.7320905e-18,9.8115244e-18
333.00000,4.5451209e-18,9.8115244e-18
333.10000,4.3479781e-18,9.8115244e-18
333.20000,4.1456326e-18,9.8115244e-18
333.30000,3.9446180e-18,9.8115244e-18
333.40000,3.7513105e-18,9.8115244e-18
333.50000,3.5700123e-18,9.8115244e-18
333.60000,3.4020102e-18,9.8115244e-18
333.70000,3.2462171e-18,9.8115244e-18
333.80000,3.1010549e-18,9.8115244e-18
333.90000,2.9664386e-18,9.8115244e-18
334.00000,2.8445598e-18,9.8115244e-18
334.10000,2.7388057e-18,9.8115244e-18
334.20000,2.6512682e-18,9.8115244e-18
334.30000,2.5802619e-18,9.8115244e-18
334.40000,2.5194833e-18,9.8115244e-18
334.50000,2.4597254e-18,9.8115244e-18
334.60000,2.3927556e-18,9.8115244e-18
334.70000,2.3157654e-18,9.8115244e-18
334.80000,2.2343196e-18,9.8115244e-18
334.90000,2.1621977e-18,9.8115244e-18
335.00000,2.1177126e-18,9.8115244e-18
335.10000,2.1174926e-18,9.8115244e-18
335.20000,2.1698034e-18,9.8115244e-18
335.30000,2.2698689e-18,9.8115244e-18
335.40000,2.3991574e-18,9.8115244e-18
335.50000,2.5293319e-18,9.8115244e-18
335.60000,2.6299013e-18,9.8115244e-18
335.70000,2.6771609e-18,9.8115244e-18
335.80000,2.6613871e-18,9.8115244e-18
335.90000,2.5897815e-18,9.8115244e-18
336.00000,2.4841599e-18,9.8115244e-18
336.10000,2.3742595e-18,9.8115244e-18
336.20000,2.2890292e-18,9.8115244e-18
336.30000,2.2488386e-18,9.8115244e-18
336.40000,2.2610408e-18,9.8115244e-18
336.50000,2.3200311e-18,9.8115244e-18
336.60000,2.4113485e-18,9.8115244e-18
336.70000,2.5180248e-18,9.8115244e-18
336.80000,2.6267438e-18,9.8115244e-18
336.90000,2.7316142e-18,9.8115244e-18
337.00000,2.8344097e-18,9.8115244e-18
337.10000,2.9415710e-18,9.8115244e-18
337.20000,3.0595275e-18,9.8115244e-18
337.30000,3.1904400e-18,9.8115244e-18
337.40000,3.3300761e-18,9.8115244e-18
337.50000,3.4684292e-18,9.8115244e-18
337.60000,3.5924850e-18,9.8115244e-18
337.70000,3.6898442e-18,9.8115244e-18
337.80000,3.7519851e-18,9.8115244e-18
337.90000,3.7765472e-18,9.8115244e-18
338.00000,3.7685669e-18,9.8115244e-18
338.10000,3.7406921e-18,9.8115244e-18
338.20000,3.7121144e-18,9.8115244e-18
338.30000,3.7057731e-18,9.8115244e-18
338.40000,3.7437517e-18,9.8115244e-18
338.50000,3.8416824e-18,9.8115244e-18
338.60000,4.0038632e-18,9.8115244e-18
338.70000,4.2209740e-18,9.8115244e-18
338.80000,4.4715027e-18,9.8115244e-18
338.90000,4.7265723e-18,9.8115244e-18
339.00000,4.9565623e-18,9.8115244e-18
339.10000,5.1373617e-18,9.8115244e-18
339.20000,5.2544532e-18,9.8115244e-18
339.30000,5.3039886e-18,9.8115244e-18
339.40000,5.2910211e-18,9.8115244e-18
339.50000,5.2260342e-18,9.8115244e-18
339.60000,5.1206694e-18,9.8115244e-18
339.70000,4.9841729e-18,9.8115244e-18
339.80000,4.8215654e-18,9.8115244e-18
339.90000,4.6339823e-18,9.8115244e-18
340.00000,4.4211385e-18,9.8115244e-18
340.10000,4.1851107e-18,9.8115244e-18
340.20000,3.9340343e-18,9.8115244e-18
340.30000,3.6840928e-18,9.8115244e-18
340.40000,3.4585636e-18,9.8115244e-18
340.50000,3.2836249e-18,9.8115244e-18
340.60000,3.1818761e-18,9.8115244e-18
340.70000,3.1655904e-18,9.8115244e-18
340.80000,3.2321545e-18,9.8115244e-18
340.90000,3.3636507e-18,9.8115244e-18
341.00000,3.5311852e-18,9.8115244e-18
341.10000,3.7027978e-18,9.8115244e-18
341.20000,3.8523068e-18,9.8115244e-18
341.30000,3.9659055e-18,9.8115244e-18
341.40000,4.0440575e-18,9.8115244e-18
341.50000,4.0980227e-18,9.8115244e-18
341.60000,4.1424878e-18,9.8115244e-18
341.70000,4.1873513e-18,9.8115244e-18
341.80000,4.2320331e-18,9.8115244e-18
341.90000,4.2645579e-18,9.8115244e-18
342.00000,4.2656101e-18,9.8115244e-18
342.10000,4.2156663e-18,9.8115244e-18
342.20000,4.1021264e-18,9.8115244e-18
342.30000,3.9235815e-18,9.8115244e-18
342.40000,3.6898137e-18,9.8115244e-18
342.50000,3.4180853e-18,9.8115244e-18
342.60000,3.1277965e-18,9.8115244e-18
342.70000,2.8359860e-18,9.8115244e-18
342.80000,2.5553458e-18,9.8115244e-18
342.90000,2.2949476e-18,9.8115244e-18
343.00000,2.0625428e-18,9.8115244e-18
343.10000,1.8667535e-18,9.8115244e-18
343.20000,1.7178330e-18,9.8115244e-18
343.30000,1.6266049e-18,9.8115244e-18
343.40000,1.6021065e-18,9.8115244e-18
343.50000,1.6489438e-18,9.8115244e-18
343.60000,1.7653290e-18,9.8115244e-18
343.70000,1.9423957e-18,9.8115244e-18
343.80000,2.1649490e-18,9.8115244e-18
343.90000,2.4134439e-18,9.8115244e-18
344.00000,2.6667351e-18,9.8115244e-18
344.10000,2.9049634e-18,9.8115244e-18
344.20000,3.1118950e-18,9.8115244e-18
344.30000,3.2761888e-18,9.8115244e-18
344.40000,3.3914579e-18,9.8115244e-18
344.50000,3.4554844e-18,9.8115244e-18
344.60000,3.4692609e-18,9.8115244e-18
344.70000,3.4364459e-18,9.8115244e-18
344.80000,3.3633688e-18,9.8115244e-18
344.90000,3.2591860e-18,9.8115244e-18
345.00000,3.1355767e-18,9.8115244e-18
345.10000,3.0056278e-18,9.8115244e-18
345.20000,2.8821194e-18,9.8115244e-18
345.30000,2.7758553e-18,9.8115244e-18
345.40000,2.6946529e-18,9.8115244e-18
345.50000,2.6431261e-18,9.8115244e-18
345.60000,2.6228357e-18,9.8115244e-18
345.70000,2.6322024e-18,9.8115244e-18
345.80000,2.6659748e-18,9.8115244e-18
345.90000,2.7147823e-18,9.8115244e-18
346.00000,2.7658168e-18,9.8115244e-18
346.10000,2.8054916e-18,9.8115244e-18
346.20000,2.8239322e-18,9.8115244e-18
346.30000,2.8198639e-18,9.8115244e-18
346.40000,2.8036466e-18,9.8115244e-18
346.50000,2.7964874e-18,9.8115244e-18
346.60000,2.8252682e-18,9.8115244e-18
346.70000,2.9143455e-18,9.8115244e-18
346.80000,3.0771553e-18,9.8115244e-18
346.90000,3.3107439e-18,9.8115244e-18
347.00000,3.5952585e-18,9.8115244e-18
347.10000,3.8984795e-18,9.8115244e-18
347.20000,4.1835648e-18,9.8115244e-18
347.30000,4.4171549e-18,9.8115244e-18
347.40000,4.5752620e-18,9.8115244e-18
347.50000,4.6456871e-18,9.8115244e-18
347.60000,4.6273495e-18,9.8115244e-18
347.70000,4.5280402e-18,9.8115244e-18
347.80000,4.3622143e-18,9.8115244e-18
347.90000,4.1496251e-18,9.8115244e-18
348.00000,3.9144693e-18,9.8115244e-18
348.10000,3.6840329e-18,9.8115244e-18
348.20000,3.4860171e-18,9.8115244e-18
348.30000,3.3446553e-18,9.8115244e-18
348.40000,3.2767702e-18,9.8115244e-18
348.50000,3.2893600e-18,9.8115244e-18
348.60000,3.3798011e-18,9.8115244e-18
348.70000,3.5385678e-18,9.8115244e-18
348.80000,3.7531618e-18,9.8115244e-18
348.90000,4.0114010e-18,9.8115244e-18
349.00000,4.3026396e-18,9.8115244e-18
349.10000,4.6166120e-18,9.8115244e-18
349.20000,4.9408321e-18,9.8115244e-18
349.30000,5.2582174e-18,9.8115244e-18
349.40000,5.5465383e-18,9.8115244e-18
349.50000,5.7804999e-18,9.8115244e-18
349.60000,5.9361042e-18,9.8115244e-18
349.70000,5.9959437e-18,9.8115244e-18
349.80000,5.9536565e-18,9.8115244e-18
349.90000,5.8161001e-18,9.8115244e-18
350.00000,5.6026954e-18,9.8115244e-18
350.10000,5.3423536e-18,9.8115244e-18
350.20000,5.0689597e-18,9.8115244e-18
350.30000,4.8163414e-18,9.8115244e-18
350.40000,4.6132626e-18,9.8115244e-18
350.50000,5.0157021e-18,9.8115244e-18
350.60000,6.8418968e-18,3.3739318e-19
350.70000,6.3447694e-18,4.2084824e-19
350.80000,6.1715947e-18,4.0901875e-19
350.90000,6.5219672e-18,2.4311624e-19
351.00000,6.8723398e-18,9.5156910e-20
351.10000,7.2227124e-18,5.5535323e-20
351.20000,7.4998656e-18,2.5374092e-19
351.30000,7.6427397e-18,4.0495257e-19
351.40000,7.7856138e-18,5.4272932e-19
351.50000,7.9284879e-18,6.8050607e-19
351.60000,8.0139459e-18,7.4084412e-19
351.70000,7.9791600e-18,4.0732714e-19
351.80000,7.9443741e-18,2.9469935e-19
351.90000,7.9095881e-18,2.6863810e-19
352.00000,7.9693258e-18,4.0806615e-19
352.10000,8.2561972e-18,2.1838116e-19
352.20000,8.5430687e-18,3.8109141e-19
352.30000,8.8299401e-18,6.0316961e-19
352.40000,9.0958346e-18,8.0243238e-19
