wave,flux,fluxerr
300.00000,2.4243884e-16,6.9257923e-18
300.10000,2.3466600e-16,6.9257923e-18
300.20000,2.2818800e-16,6.9257923e-18
300.30000,2.2389773e-16,6.9257923e-18
300.40000,2.2232795e-16,6.9257923e-18
300.50000,2.2361452e-16,6.9257923e-18
300.60000,2.2753673e-16,6.9257923e-18
300.70000,2.3358750e-16,6.9257923e-18
300.80000,2.4103439e-16,6.9257923e-18
300.90000,2.4896360e-16,6.9257923e-18
301.00000,2.5633126e-16,6.9257923e-18
301.10000,2.6205863e-16,6.9257923e-18
301.20000,2.6519079e-16,6.9257923e-18
301.30000,2.6510124e-16,6.9257923e-18
301.40000,2.6168700e-16,6.9257923e-18
301.50000,2.5547993e-16,6.9257923e-18
301.60000,2.4761215e-16,6.9257923e-18
301.70000,2.3961558e-16,6.9257923e-18
301.80000,2.3309316e-16,6.9257923e-18
301.90000,2.2935164e-16,6.9257923e-18
302.00000,2.2910774e-16,6.9257923e-18
302.10000,2.3235954e-16,6.9257923e-18
302.20000,2.3845823e-16,6.9257923e-18
302.30000,2.4634437e-16,6.9257923e-18
302.40000,2.5485993e-16,6.9257923e-18
302.50000,2.6303219e-16,6.9257923e-18
302.60000,2.7025086e-16,6.9257923e-18
302.70000,2.7630788e-16,6.9257923e-18
302.80000,2.8131683e-16,6.9257923e-18
302.90000,2.8556043e-16,6.9257923e-18
303.00000,2.8932525e-16,6.9257923e-18
303.10000,2.9277629e-16,6.9257923e-18
303.20000,2.9590529e-16,6.9257923e-18
303.30000,2.9855968e-16,6.9257923e-18
303.40000,3.0053081e-16,6.9257923e-18
303.50000,3.0165988e-16,6.9257923e-18
303.60000,3.0191701e-16,6.9257923e-18
303.70000,3.0142452e-16,6.9257923e-18
303.80000,3.0042223e-16,6.9257923e-18
303.90000,2.9919592e-16,6.9257923e-18
304.00000,2.9800212e-16,6.9257923e-18
304.10000,2.9701850e-16,6.9257923e-18
304.20000,2.9633524e-16,6.9257923e-18
304.30000,2.9598353e-16,6.9257923e-18
304.40000,2.9598086e-16,6.9257923e-18
304.50000,2.9636378e-16,6.9257923e-18
304.60000,2.9718279e-16,6.9257923e-18
304.70000,2.9845264e-16,6.9257923e-18
304.80000,3.0007703e-16,6.9257923e-18
304.90000,3.0178839e-16,6.9257923e-18
305.00000,3.0314730e-16,6.9257923e-18
305.10000,3.0362705e-16,6.9257923e-18
305.20000,3.0277221e-16,6.9257923e-18
305.30000,3.0038079e-16,6.9257923e-18
305.40000,2.9663625e-16,6.9257923e-18
305.50000,2.9212292e-16,6.9257923e-18
305.60000,2.8769824e-16,6.9257923e-18
305.70000,2.8425469e-16,6.9257923e-18
305.80000,2.8245655e-16,6.9257923e-18
305.90000,2.8255473e-16,6.9257923e-18
306.00000,2.8435265e-16,6.9257923e-18
306.10000,2.8732947e-16,6.9257923e-18
306.20000,2.9085757e-16,6.9257923e-18
306.30000,2.9441396e-16,6.9257923e-18
306.40000,2.9770008e-16,6.9257923e-18
306.50000,3.0063894e-16,6.9257923e-18
306.60000,3.0328104e-16,6.9257923e-18
306.70000,3.0568678e-16,6.9257923e-18
306.80000,3.0784779e-16,6.9257923e-18
306.90000,3.0967324e-16,6.9257923e-18
307.00000,3.1102582e-16,6.9257923e-18
307.10000,3.1177088e-16,6.9257923e-18
307.20000,3.1180888e-16,6.9257923e-18
307.30000,3.1108533e-16,6.9257923e-18
307.40000,3.0959312e-16,6.9257923e-18
307.50000,3.0738469e-16,6.9257923e-18
307.60000,3.0459556e-16,6.9257923e-18
307.70000,3.0145993e-16,6.9257923e-18
307.80000,2.9828993e-16,6.9257923e-18
307.90000,2.9540244e-16,6.9257923e-18
308.00000,2.9300632e-16,6.9257923e-18
308.10000,2.9109292e-16,6.9257923e-18
308.20000,2.8938563e-16,6.9257923e-18
308.30000,2.8738927e-16,6.9257923e-18
308.40000,2.8454070e-16,6.9257923e-18
308.50000,2.8041491e-16,6.9257923e-18
308.60000,2.7490924e-16,6.9257923e-18
308.70000,2.6832806e-16,6.9257923e-18
308.80000,2.6132553e-16,6.9257923e-18
308.90000,2.5471988e-16,6.9257923e-18
309.00000,2.4924637e-16,6.9257923e-18
309.10000,2.4534410e-16,6.9257923e-18
309.20000,2.4306041e-16,6.9257923e-18
309.30000,2.4210954e-16,6.9257923e-18
309.40000,2.4205767e-16,6.9257923e-18
309.50000,2.4255308e-16,6.9257923e-18
309.60000,2.4350278e-16,6.9257923e-18
309.70000,2.4512337e-16,6.9257923e-18
309.80000,2.4785244e-16,6.9257923e-18
309.90000,2.5216683e-16,6.9257923e-18
310.00000,2.5838786e-16,6.9257923e-18
310.10000,2.6654709e-16,6.9257923e-18
310.20000,2.7634886e-16,6.9257923e-18
310.30000,2.8722165e-16,6.9257923e-18
310.40000,2.9842213e-16,6.9257923e-18
310.50000,3.0915340e-16,6.9257923e-18
310.60000,3.1867348e-16,6.9257923e-18
310.70000,3.2638664e-16,6.9257923e-18
310.80000,3.3191597e-16,6.9257923e-18
310.90000,3.3514979e-16,6.9257923e-18
311.00000,3.3624793e-16,6.9257923e-18
311.10000,3.3559588e-16,6.9257923e-18
311.20000,3.3370979e-16,6.9257923e-18
311.30000,3.3111638e-16,6.9257923e-18
311.40000,3.2824665e-16,6.9257923e-18
311.50000,3.2538096e-16,6.9257923e-18
311.60000,3.2266287e-16,6.9257923e-18
311.70000,3.2016908e-16,6.9257923e-18
311.80000,3.1799721e-16,6.9257923e-18
311.90000,3.1632477e-16,6.9257923e-18
312.00000,3.1540610e-16,6.9257923e-18
312.10000,3.1550259e-16,6.9257923e-18
312.20000,3.1677256e-16,6.9257923e-18
312.30000,3.1916720e-16,6.9257923e-18
312.40000,3.2237987e-16,6.9257923e-18
312.50000,3.2587906e-16,6.9257923e-18
312.60000,3.2902576e-16,6.9257923e-18
312.70000,3.3124447e-16,6.9257923e-18
312.80000,3.3219382e-16,6.9257923e-18
312.90000,3.3187649e-16,6.9257923e-18
313.00000,3.3064346e-16,6.9257923e-18
313.10000,3.2908147e-16,6.9257923e-18
313.20000,3.2781457e-16,6.9257923e-18
313.30000,3.2728442e-16,6.9257923e-18
313.40000,3.2758502e-16,6.9257923e-18
313.50000,3.2841085e-16,6.9257923e-18
313.60000,3.2913799e-16,6.9257923e-18
313.70000,3.2901435e-16,6.9257923e-18
313.80000,3.2740078e-16,6.9257923e-18
313.90000,3.2399297e-16,6.9257923e-18
314.00000,3.1896076e-16,6.9257923e-18
314.10000,3.1296433e-16,6.9257923e-18
314.20000,3.0703720e-16,6.9257923e-18
314.30000,3.0235939e-16,6.9257923e-18
314.40000,2.9997452e-16,6.9257923e-18
314.50000,3.0052394e-16,6.9257923e-18
314.60000,3.0407130e-16,6.9257923e-18
314.70000,3.1006840e-16,6.9257923e-18
314.80000,3.1747391e-16,6.9257923e-18
314.90000,3.2499167e-16,6.9257923e-18
315.00000,3.3136098e-16,6.9257923e-18
315.10000,3.3561770e-16,6.9257923e-18
315.20000,3.3725732e-16,6.9257923e-18
315.30000,3.3626424e-16,6.9257923e-18
315.40000,3.3301541e-16,6.9257923e-18
315.50000,3.2810625e-16,6.9257923e-18
315.60000,3.2216847e-16,6.9257923e-18
315.70000,3.1574490e-16,6.9257923e-18
315.80000,3.0925538e-16,6.9257923e-18
315.90000,3.0304329e-16,6.9257923e-18
316.00000,2.9745408e-16,6.9257923e-18
316.10000,2.9288490e-16,6.9257923e-18
316.20000,2.8976555e-16,6.9257923e-18
316.30000,2.8847374e-16,6.9257923e-18
316.40000,2.8922795e-16,6.9257923e-18
316.50000,2.9201434e-16,6.9257923e-18
316.60000,2.9658405e-16,6.9257923e-18
316.70000,3.0251730e-16,6.9257923e-18
316.80000,3.0931712e-16,6.9257923e-18
316.90000,3.1648786e-16,6.9257923e-18
317.00000,3.2357276e-16,6.9257923e-18
317.10000,3.3015590e-16,6.9257923e-18
317.20000,3.3585587e-16,6.9257923e-18
317.30000,3.4033851e-16,6.9257923e-18
317.40000,3.4335761e-16,6.9257923e-18
317.50000,3.4480745e-16,6.9257923e-18
317.60000,3.4475691e-16,6.9257923e-18
317.70000,3.4343975e-16,6.9257923e-18
317.80000,3.4119614e-16,6.9257923e-18
317.90000,3.3838549e-16,6.9257923e-18
318.00000,3.3530419e-16,6.9257923e-18
318.10000,3.3213825e-16,6.9257923e-18
318.20000,3.2896214e-16,6.9257923e-18
318.30000,3.2577290e-16,6.9257923e-18
318.40000,3.2253378e-16,6.9257923e-18
318.50000,3.1920245e-16,6.9257923e-18
318.60000,3.1573309e-16,6.9257923e-18
318.70000,3.1206244e-16,6.9257923e-18
318.80000,3.0810687e-16,6.9257923e-18
318.90000,3.0379791e-16,6.9257923e-18
319.00000,2.9916441e-16,6.9257923e-18
319.10000,2.9443584e-16,6.9257923e-18
319.20000,2.9011187e-16,6.9257923e-18
319.30000,2.8693912e-16,6.9257923e-18
319.40000,2.8576687e-16,6.9257923e-18
319.50000,2.8730966e-16,6.9257923e-18
319.60000,2.9189667e-16,6.9257923e-18
319.70000,2.9930578e-16,6.9257923e-18
319.80000,3.0875206e-16,6.9257923e-18
319.90000,3.1903938e-16,6.9257923e-18
320.00000,3.2882211e-16,6.9257923e-18
320.10000,3.3689008e-16,6.9257923e-18
320.20000,3.4239486e-16,6.9257923e-18
320.30000,3.4496799e-16,6.9257923e-18
320.40000,3.4472214e-16,6.9257923e-18
320.50000,3.4215715e-16,6.9257923e-18
320.60000,3.3800978e-16,6.9257923e-18
320.70000,3.3308922e-16,6.9257923e-18
320.80000,3.2813460e-16,6.9257923e-18
320.90000,3.2371849e-16,6.9257923e-18
321.00000,3.2020375e-16,6.9257923e-18
321.10000,3.1774701e-16,6.9257923e-18
321.20000,3.1633300e-16,6.9257923e-18
321.30000,3.1582380e-16,6.9257923e-18
321.40000,3.1601162e-16,6.9257923e-18
321.50000,3.1666832e-16,6.9257923e-18
321.60000,3.1758638e-16,6.9257923e-18
321.70000,3.1860514e-16,6.9257923e-18
321.80000,3.1961718e-16,6.9257923e-18
321.90000,3.2055482e-16,6.9257923e-18
322.00000,3.2136525e-16,6.9257923e-18
322.10000,3.2198874e-16,6.9257923e-18
322.20000,3.2235356e-16,6.9257923e-18
322.30000,3.2239117e-16,6.9257923e-18
322.40000,3.2206146e-16,6.9257923e-18
322.50000,3.2136996e-16,6.9257923e-18
322.60000,3.2036331e-16,6.9257923e-18
322.70000,3.1910549e-16,6.9257923e-18
322.80000,3.1765339e-16,6.9257923e-18
322.90000,3.1605437e-16,6.9257923e-18
323.00000,3.1437397e-16,6.9257923e-18
323.10000,3.1273826e-16,6.9257923e-18
323.20000,3.1135915e-16,6.9257923e-18
323.30000,3.1051587e-16,6.9257923e-18
323.40000,3.1048974e-16,6.9257923e-18
323.50000,3.1147888e-16,6.9257923e-18
323.60000,3.1353285e-16,6.9257923e-18
323.70000,3.1653843e-16,6.9257923e-18
323.80000,3.2026096e-16,6.9257923e-18
323.90000,3.2441911e-16,6.9257923e-18
324.00000,3.2875996e-16,6.9257923e-18
324.10000,3.3310842e-16,6.9257923e-18
324.20000,3.3738429e-16,6.9257923e-18
324.30000,3.4159497e-16,6.9257923e-18
324.40000,3.4581624e-16,6.9257923e-18
324.50000,3.5016605e-16,6.9257923e-18
324.60000,3.5476889e-16,6.9257923e-18
324.70000,3.5970870e-16,6.9257923e-18
324.80000,3.6497741e-16,6.9257923e-18
324.90000,3.7043671e-16,6.9257923e-18
325.00000,3.7581226e-16,6.9257923e-18
325.10000,3.8072867e-16,6.9257923e-18
325.20000,3.8477775e-16,6.9257923e-18
325.30000,3.8759948e-16,6.9257923e-18
325.40000,3.8895340e-16,6.9257923e-18
325.50000,3.8876465e-16,6.9257923e-18
325.60000,3.8713901e-16,6.9257923e-18
325.70000,3.8434827e-16,6.9257923e-18
325.80000,3.8079201e-16,6.9257923e-18
325.90000,3.7694258e-16,6.9257923e-18
326.00000,3.7328102e-16,6.9257923e-18
326.10000,3.7023097e-16,6.9257923e-18
326.20000,3.6809781e-16,6.9257923e-18
326.30000,3.6702173e-16,6.9257923e-18
326.40000,3.6695689e-16,6.9257923e-18
326.50000,3.6769053e-16,6.9257923e-18
326.60000,3.6890938e-16,6.9257923e-18
326.70000,3.7030384e-16,6.9257923e-18
326.80000,3.7167846e-16,6.9257923e-18
326.90000,3.7302396e-16,6.9257923e-18
327.00000,3.7451489e-16,6.9257923e-18
327.10000,3.7642714e-16,6.9257923e-18
327.20000,3.7900830e-16,6.9257923e-18
327.30000,3.8235748e-16,6.9257923e-18
327.40000,3.8636598e-16,6.9257923e-18
327.50000,3.9073954e-16,6.9257923e-18
327.60000,3.9508359e-16,6.9257923e-18
327.70000,3.9900836e-16,6.9257923e-18
327.80000,4.0221035e-16,6.9257923e-18
327.90000,4.0450654e-16,6.9257923e-18
328.00000,4.0582365e-16,6.9257923e-18
328.10000,4.0616308e-16,6.9257923e-18
328.20000,4.0556572e-16,6.9257923e-18
328.30000,4.0409412e-16,6.9257923e-18
328.40000,4.0183644e-16,6.9257923e-18
328.50000,3.9892479e-16,6.9257923e-18
328.60000,3.9555511e-16,6.9257923e-18
328.70000,3.9199258e-16,6.9257923e-18
328.80000,3.8855190e-16,6.9257923e-18
328.90000,3.8555091e-16,6.9257923e-18
329.00000,3.8324861e-16,6.9257923e-18
329.10000,3.8178854e-16,6.9257923e-18
329.20000,3.8117103e-16,6.9257923e-18
329.30000,3.8126800e-16,6.9257923e-18
329.40000,3.8187546e-16,6.9257923e-18
329.50000,3.8278000e-16,6.9257923e-18
329.60000,3.8380889e-16,6.9257923e-18
329.70000,3.8484411e-16,6.9257923e-18
329.80000,3.8580313e-16,6.9257923e-18
329.90000,3.8661002e-16,6.9257923e-18
330.00000,3.8718451e-16,6.9257923e-18
330.10000,3.8746237e-16,6.9257923e-18
330.20000,3.8743639e-16,6.9257923e-18
330.30000,3.8719023e-16,6.9257923e-18
330.40000,3.8689787e-16,6.9257923e-18
330.50000,3.8677829e-16,6.9257923e-18
330.60000,3.8701763e-16,6.9257923e-18
330.70000,3.8768722e-16,6.9257923e-18
330.80000,3.8868901e-16,6.9257923e-18
330.90000,3.8975125e-16,6.9257923e-18
331.00000,3.9048152e-16,6.9257923e-18
331.10000,3.9046589e-16,6.9257923e-18
331.20000,3.8938701e-16,6.9257923e-18
331.30000,3.8712331e-16,6.9257923e-18
331.40000,3.8379381e-16,6.9257923e-18
331.50000,3.7973015e-16,6.9257923e-18
331.60000,3.7538700e-16,6.9257923e-18
331.70000,3.7122968e-16,6.9257923e-18
331.80000,3.6764836e-16,6.9257923e-18
331.90000,3.6493155e-16,6.9257923e-18
332.00000,3.6329500e-16,6.9257923e-18
332.10000,3.6292791e-16,6.9257923e-18
332.20000,3.6400814e-16,6.9257923e-18
332.30000,3.6666117e-16,6.9257923e-18
332.40000,3.7087879e-16,6.9257923e-18
332.50000,3.7644585e-16,6.9257923e-18
332.60000,3.8292510e-16,6.9257923e-18
332.70000,3.8972019e-16,6.9257923e-18
332.80000,3.9619553e-16,6.9257923e-18
332.90000,4.0180479e-16,6.9257923e-18
333.00000,4.0618107e-16,6.9257923e-18
333.10000,4.0916651e-16,6.9257923e-18
333.20000,4.1078847e-16,6.9257923e-18
333.30000,4.1120722e-16,6.9257923e-18
333.40000,4.1065958e-16,6.9257923e-18
333.50000,4.0941140e-16,6.9257923e-18
333.60000,4.0771869e-16,6.9257923e-18
333.70000,4.0579209e-16,6.9257923e-18
333.80000,4.0376250e-16,6.9257923e-18
333.90000,4.0165335e-16,6.9257923e-18
334.00000,3.9937198e-16,6.9257923e-18
334.10000,3.9673301e-16,6.9257923e-18
334.20000,3.9352037e-16,6.9257923e-18
334.30000,3.8957971e-16,6.9257923e-18
334.40000,3.8491643e-16,6.9257923e-18
334.50000,3.7976059e-16,6.9257923e-18
334.60000,3.7455961e-16,6.9257923e-18
334.70000,3.6987763e-16,6.9257923e-18
334.80000,3.6621488e-16,6.9257923e-18
334.90000,3.6380080e-16,6.9257923e-18
335.00000,3.6244067e-16,6.9257923e-18
335.10000,3.6149224e-16,6.9257923e-18
335.20000,3.6001093e-16,6.9257923e-18
335.30000,3.5704013e-16,6.9257923e-18
335.40000,3.5196054e-16,6.9257923e-18
335.50000,3.4477545e-16,6.9257923e-18
335.60000,3.3621428e-16,6.9257923e-18
335.70000,3.2759086e-16,6.9257923e-18
335.80000,3.2043893e-16,6.9257923e-18
335.90000,3.1603696e-16,6.9257923e-18
336.00000,3.1498943e-16,6.9257923e-18
336.10000,3.1702365e-16,6.9257923e-18
336.20000,3.2108689e-16,6.9257923e-18
336.30000,3.2571367e-16,6.9257923e-18
336.40000,3.2952688e-16,6.9257923e-18
336.50000,3.3168537e-16,6.9257923e-18
336.60000,3.3211672e-16,6.9257923e-18
336.70000,3.3146409e-16,6.9257923e-18
336.80000,3.3078792e-16,6.9257923e-18
336.90000,3.3115110e-16,6.9257923e-18
337.00000,3.3324545e-16,6.9257923e-18
337.10000,3.3718566e-16,6.9257923e-18
337.20000,3.4252251e-16,6.9257923e-18
337.30000,3.4844527e-16,6.9257923e-18
337.40000,3.5408232e-16,6.9257923e-18
337.50000,3.5878788e-16,6.9257923e-18
337.60000,3.6232039e-16,6.9257923e-18
337.70000,3.6486429e-16,6.9257923e-18
337.80000,3.6690310e-16,6.9257923e-18
337.90000,3.6899997e-16,6.9257923e-18
338.00000,3.7156751e-16,6.9257923e-18
338.10000,3.7470506e-16,6.9257923e-18
338.20000,3.7815226e-16,6.9257923e-18
338.30000,3.8136537e-16,6.9257923e-18
338.40000,3.8368476e-16,6.9257923e-18
338.50000,3.8454014e-16,6.9257923e-18
338.60000,3.8363669e-16,6.9257923e-18
338.70000,3.8107491e-16,6.9257923e-18
338.80000,3.7737260e-16,6.9257923e-18
338.90000,3.7337620e-16,6.9257923e-18
339.00000,3.7007354e-16,6.9257923e-18
339.10000,3.6834920e-16,6.9257923e-18
339.20000,3.6874908e-16,6.9257923e-18
339.30000,3.7132907e-16,6.9257923e-18
339.40000,3.7564255e-16,6.9257923e-18
339.50000,3.8087608e-16,6.9257923e-18
339.60000,3.8608933e-16,6.9257923e-18
339.70000,3.9047668e-16,6.9257923e-18
339.80000,3.9356211e-16,6.9257923e-18
339.90000,3.9526845e-16,6.9257923e-18
340.00000,3.9585265e-16,6.9257923e-18
340.10000,3.9574887e-16,6.9257923e-18
340.20000,3.9538895e-16,6.9257923e-18
340.30000,3.9506583e-16,6.9257923e-18
340.40000,3.9487540e-16,6.9257923e-18
340.50000,3.9473328e-16,6.9257923e-18
340.60000,3.9443694e-16,6.9257923e-18
340.70000,3.9373924e-16,6.9257923e-18
340.80000,3.9241375e-16,6.9257923e-18
340.90000,3.9030964e-16,6.9257923e-18
341.00000,3.8739971e-16,6.9257923e-18
341.10000,3.8381710e-16,6.9257923e-18
341.20000,3.7986360e-16,6.9257923e-18
341.30000,3.7596982e-16,6.9257923e-18
341.40000,3.7260226e-16,6.9257923e-18
341.50000,3.7013923e-16,6.9257923e-18
341.60000,3.6876004e-16,6.9257923e-18
341.70000,3.6839537e-16,6.9257923e-18
341.80000,3.6876554e-16,6.9257923e-18
341.90000,3.6949571e-16,6.9257923e-18
342.00000,3.7026172e-16,6.9257923e-18
342.10000,3.7090400e-16,6.9257923e-18
342.20000,3.7145983e-16,6.9257923e-18
342.30000,3.7210090e-16,6.9257923e-18
342.40000,3.7300740e-16,6.9257923e-18
342.50000,3.7424028e-16,6.9257923e-18
342.60000,3.7567440e-16,6.9257923e-18
342.70000,3.7702517e-16,6.9257923e-18
342.80000,3.7795348e-16,6.9257923e-18
342.90000,3.7819304e-16,6.9257923e-18
343.00000,3.7763264e-16,6.9257923e-18
343.10000,3.7631126e-16,6.9257923e-18
343.20000,3.7433508e-16,6.9257923e-18
343.30000,3.7177331e-16,6.9257923e-18
343.40000,3.6860680e-16,6.9257923e-18
343.50000,3.6477606e-16,6.9257923e-18
343.60000,3.6031630e-16,6.9257923e-18
343.70000,3.5550887e-16,6.9257923e-18
343.80000,3.5095592e-16,6.9257923e-18
343.90000,3.4751351e-16,6.9257923e-18
344.00000,3.4608497e-16,6.9257923e-18
344.10000,3.4734614e-16,6.9257923e-18
344.20000,3.5150931e-16,6.9257923e-18
344.30000,3.5821787e-16,6.9257923e-18
344.40000,3.6660877e-16,6.9257923e-18
344.50000,3.7551561e-16,6.9257923e-18
344.60000,3.8374091e-16,6.9257923e-18
344.70000,3.9031470e-16,6.9257923e-18
344.80000,3.9467322e-16,6.9257923e-18
344.90000,3.9672173e-16,6.9257923e-18
345.00000,3.9677792e-16,6.9257923e-18
345.10000,3.9542270e-16,6.9257923e-18
345.20000,3.9330853e-16,6.9257923e-18
345.30000,3.9098718e-16,6.9257923e-18
345.40000,3.8880870e-16,6.9257923e-18
345.50000,3.8691250e-16,6.9257923e-18
345.60000,3.8529040e-16,6.9257923e-18
345.70000,3.8387290e-16,6.9257923e-18
345.80000,3.8258914e-16,6.9257923e-18
345.90000,3.8137933e-16,6.9257923e-18
346.00000,3.8017495e-16,6.9257923e-18
346.10000,3.7888334e-16,6.9257923e-18
346.20000,3.7740467e-16,6.9257923e-18
346.30000,3.7567972e-16,6.9257923e-18
346.40000,3.7373747e-16,6.9257923e-18
346.50000,3.7170732e-16,6.9257923e-18
346.60000,3.6978294e-16,6.9257923e-18
346.70000,3.6816067e-16,6.9257923e-18
346.80000,3.6699520e-16,6.9257923e-18
346.90000,3.6640481e-16,6.9257923e-18
347.00000,3.6652166e-16,6.9257923e-18
347.10000,3.6754524e-16,6.9257923e-18
347.20000,3.6974605e-16,6.9257923e-18
347.30000,3.7339252e-16,6.9257923e-18
347.40000,3.7862192e-16,6.9257923e-18
347.50000,3.8531624e-16,6.9257923e-18
347.60000,3.9305138e-16,6.9257923e-18
347.70000,4.0115587e-16,6.9257923e-18
347.80000,4.0886234e-16,6.9257923e-18
347.90000,4.1548983e-16,6.9257923e-18
348.00000,4.2058253e-16,6.9257923e-18
348.10000,4.2395572e-16,6.9257923e-18
348.20000,4.2564792e-16,6.9257923e-18
348.30000,4.2582272e-16,6.9257923e-18
348.40000,4.2468116e-16,6.9257923e-18
348.50000,4.2242880e-16,6.9257923e-18
348.60000,4.1930282e-16,6.9257923e-18
348.70000,4.1562627e-16,6.9257923e-18
348.80000,4.1184084e-16,6.9257923e-18
348.90000,4.0848231e-16,6.9257923e-18
349.00000,4.0609612e-16,6.9257923e-18
349.10000,4.0512366e-16,6.9257923e-18
349.20000,4.0580521e-16,6.9257923e-18
349.30000,4.0813609e-16,6.9257923e-18
349.40000,4.1188555e-16,6.9257923e-18
349.50000,4.1665930e-16,6.9257923e-18
349.60000,4.2197327e-16,6.9257923e-18
349.70000,4.2731218e-16,6.9257923e-18
349.80000,4.3216685e-16,6.9257923e-18
349.90000,4.3606302e-16,6.9257923e-18
350.00000,4.3703004e-16,6.9257923e-18
350.10000,4.2280376e-16,4.9801149e-18
350.20000,4.1564328e-16,4.0826135e-18
350.30000,4.1964294e-16,6.4449371e-18
350.40000,4.1895578e-16,6.6531254e-18
350.50000,4.1826862e-16,8.6692573e-18
350.60000,4.1803788e-16,1.1918762e-17
350.70000,4.1798316e-16,1.0042078e-17
350.80000,4.1595837e-16,9.6521660e-18
350.90000,4.1572646e-16,5.4567894e-18
351.00000,4.1593118e-16,9.8574615e-18
351.10000,4.1590642e-16,5.0013861e-18
351.20000,4.1542333e-16,2.6843947e-18
351.30000,4.1494024e-16,1.0044898e-17
351.40000,4.1391847e-16,9.4086529e-18
351.50000,4.1229031e-16,5.5476148e-18
351.60000,4.0956422e-16,7.7666972e-18
351.70000,4.1016943e-16,4.1553317e-18
351.80000,4.1140212e-16,8.2728079e-18
351.90000,4.1213980e-16,9.7867279e-18
352.00000,4.1197417e-16,7.3264079e-18
352.10000,4.1181071e-16,6.1218265e-18
352.20000,4.1234347e-16,1.1400077e-17
352.30000,4.1348619e-16,9.4472903e-18
352.40000,4.1446602e-16,8.7225491e-18
