wave,flux,fluxerr
300.00000,5.3948638e-16,1.2681222e-17
300.10000,5.3653646e-16,1.2681222e-17
300.20000,5.3053410e-16,1.2681222e-17
300.30000,5.2169174e-16,1.2681222e-17
300.40000,5.1085031e-16,1.2681222e-17
300.50000,4.9936317e-16,1.2681222e-17
300.60000,4.8879899e-16,1.2681222e-17
300.70000,4.8058214e-16,1.2681222e-17
300.80000,4.7571106e-16,1.2681222e-17
300.90000,4.7464456e-16,1.2681222e-17
301.00000,4.7735347e-16,1.2681222e-17
301.10000,4.8345394e-16,1.2681222e-17
301.20000,4.9231502e-16,1.2681222e-17
301.30000,5.0307773e-16,1.2681222e-17
301.40000,5.1460458e-16,1.2681222e-17
301.50000,5.2544666e-16,1.2681222e-17
301.60000,5.3392845e-16,1.2681222e-17
301.70000,5.3840087e-16,1.2681222e-17
301.80000,5.3762784e-16,1.2681222e-17
301.90000,5.3119226e-16,1.2681222e-17
302.00000,5.1977152e-16,1.2681222e-17
302.10000,5.0515512e-16,1.2681222e-17
302.20000,4.8995338e-16,1.2681222e-17
302.30000,4.7704997e-16,1.2681222e-17
302.40000,4.6894599e-16,1.2681222e-17
302.50000,4.6719211e-16,1.2681222e-17
302.60000,4.7208241e-16,1.2681222e-17
302.70000,4.8269513e-16,1.2681222e-17
302.80000,4.9724468e-16,1.2681222e-17
302.90000,5.1360848e-16,1.2681222e-17
303.00000,5.2985076e-16,1.2681222e-17
303.10000,5.4459413e-16,1.2681222e-17
303.20000,5.5716309e-16,1.2681222e-17
303.30000,5.6750683e-16,1.2681222e-17
303.40000,5.7597022e-16,1.2681222e-17
303.50000,5.8301224e-16,1.2681222e-17
303.60000,5.8897070e-16,1.2681222e-17
303.70000,5.9394435e-16,1.2681222e-17
303.80000,5.9781631e-16,1.2681222e-17
303.90000,6.0038656e-16,1.2681222e-17
304.00000,6.0153995e-16,1.2681222e-17
304.10000,6.0136768e-16,1.2681222e-17
304.20000,6.0018964e-16,1.2681222e-17
304.30000,5.9847621e-16,1.2681222e-17
304.40000,5.9671317e-16,1.2681222e-17
304.50000,5.9527299e-16,1.2681222e-17
304.60000,5.9434489e-16,1.2681222e-17
304.70000,5.9394590e-16,1.2681222e-17
304.80000,5.9399920e-16,1.2681222e-17
304.90000,5.9443691e-16,1.2681222e-17
305.00000,5.9527178e-16,1.2681222e-17
305.10000,5.9659310e-16,1.2681222e-17
305.20000,5.9847651e-16,1.2681222e-17
305.30000,6.0084358e-16,1.2681222e-17
305.40000,6.0334423e-16,1.2681222e-17
305.50000,6.0534019e-16,1.2681222e-17
305.60000,6.0603383e-16,1.2681222e-17
305.70000,6.0472344e-16,1.2681222e-17
305.80000,6.0110026e-16,1.2681222e-17
305.90000,5.9546505e-16,1.2681222e-17
306.00000,5.8875391e-16,1.2681222e-17
306.10000,5.8232896e-16,1.2681222e-17
306.20000,5.7758669e-16,1.2681222e-17
306.30000,5.7552474e-16,1.2681222e-17
306.40000,5.7644004e-16,1.2681222e-17
306.50000,5.7988428e-16,1.2681222e-17
306.60000,5.8489137e-16,1.2681222e-17
306.70000,5.9036969e-16,1.2681222e-17
306.80000,5.9548254e-16,1.2681222e-17
306.90000,5.9985920e-16,1.2681222e-17
307.00000,6.0357344e-16,1.2681222e-17
307.10000,6.0694206e-16,1.2681222e-17
307.20000,6.1027049e-16,1.2681222e-17
307.30000,6.1367309e-16,1.2681222e-17
307.40000,6.1703211e-16,1.2681222e-17
307.50000,6.2007723e-16,1.2681222e-17
307.60000,6.2251326e-16,1.2681222e-17
307.70000,6.2412121e-16,1.2681222e-17
307.80000,6.2479676e-16,1.2681222e-17
307.90000,6.2453774e-16,1.2681222e-17
308.00000,6.2341847e-16,1.2681222e-17
308.10000,6.2158064e-16,1.2681222e-17
308.20000,6.1924081e-16,1.2681222e-17
308.30000,6.1668589e-16,1.2681222e-17
308.40000,6.1422214e-16,1.2681222e-17
308.50000,6.1206576e-16,1.2681222e-17
308.60000,6.1020338e-16,1.2681222e-17
308.70000,6.0828645e-16,1.2681222e-17
308.80000,6.0563049e-16,1.2681222e-17
308.90000,6.0135972e-16,1.2681222e-17
309.00000,5.9467703e-16,1.2681222e-17
309.10000,5.8517515e-16,1.2681222e-17
309.20000,5.7306891e-16,1.2681222e-17
309.30000,5.5924198e-16,1.2681222e-17
309.40000,5.4506517e-16,1.2681222e-17
309.50000,5.3203436e-16,1.2681222e-17
309.60000,5.2135706e-16,1.2681222e-17
309.70000,5.1364841e-16,1.2681222e-17
309.80000,5.0886122e-16,1.2681222e-17
309.90000,5.0647825e-16,1.2681222e-17
310.00000,5.0588059e-16,1.2681222e-17
310.10000,5.0672640e-16,1.2681222e-17
310.20000,5.0917076e-16,1.2681222e-17
310.30000,5.1383268e-16,1.2681222e-17
310.40000,5.2153195e-16,1.2681222e-17
310.50000,5.3291728e-16,1.2681222e-17
310.60000,5.4814352e-16,1.2681222e-17
310.70000,5.6671763e-16,1.2681222e-17
310.80000,5.8755018e-16,1.2681222e-17
310.90000,6.0916629e-16,1.2681222e-17
311.00000,6.2998556e-16,1.2681222e-17
311.10000,6.4858361e-16,1.2681222e-17
311.20000,6.6388295e-16,1.2681222e-17
311.30000,6.7525970e-16,1.2681222e-17
311.40000,6.8257508e-16,1.2681222e-17
311.50000,6.8614408e-16,1.2681222e-17
311.60000,6.8664926e-16,1.2681222e-17
311.70000,6.8500714e-16,1.2681222e-17
311.80000,6.8220417e-16,1.2681222e-17
311.90000,6.7913238e-16,1.2681222e-17
312.00000,6.7646143e-16,1.2681222e-17
312.10000,6.7457631e-16,1.2681222e-17
312.20000,6.7359060e-16,1.2681222e-17
312.30000,6.7342044e-16,1.2681222e-17
312.40000,6.7388666e-16,1.2681222e-17
312.50000,6.7480643e-16,1.2681222e-17
312.60000,6.7604363e-16,1.2681222e-17
312.70000,6.7750458e-16,1.2681222e-17
312.80000,6.7908792e-16,1.2681222e-17
312.90000,6.8061831e-16,1.2681222e-17
313.00000,6.8180579e-16,1.2681222e-17
313.10000,6.8226908e-16,1.2681222e-17
313.20000,6.8163716e-16,1.2681222e-17
313.30000,6.7970541e-16,1.2681222e-17
313.40000,6.7658510e-16,1.2681222e-17
313.50000,6.7276948e-16,1.2681222e-17
313.60000,6.6905938e-16,1.2681222e-17
313.70000,6.6634485e-16,1.2681222e-17
313.80000,6.6530419e-16,1.2681222e-17
313.90000,6.6612830e-16,1.2681222e-17
314.00000,6.6838136e-16,1.2681222e-17
314.10000,6.7106574e-16,1.2681222e-17
314.20000,6.7288594e-16,1.2681222e-17
314.30000,6.7263519e-16,1.2681222e-17
314.40000,6.6958448e-16,1.2681222e-17
314.50000,6.6375212e-16,1.2681222e-17
314.60000,6.5596773e-16,1.2681222e-17
314.70000,6.4770662e-16,1.2681222e-17
314.80000,6.4073793e-16,1.2681222e-17
314.90000,6.3668444e-16,1.2681222e-17
315.00000,6.3661693e-16,1.2681222e-17
315.10000,6.4079306e-16,1.2681222e-17
315.20000,6.4860474e-16,1.2681222e-17
315.30000,6.5873576e-16,1.2681222e-17
315.40000,6.6947374e-16,1.2681222e-17
315.50000,6.7908535e-16,1.2681222e-17
315.60000,6.8615701e-16,1.2681222e-17
315.70000,6.8982365e-16,1.2681222e-17
315.80000,6.8984536e-16,1.2681222e-17
315.90000,6.8653666e-16,1.2681222e-17
316.00000,6.8059334e-16,1.2681222e-17
316.10000,6.7288635e-16,1.2681222e-17
316.20000,6.6429250e-16,1.2681222e-17
316.30000,6.5560565e-16,1.2681222e-17
316.40000,6.4752870e-16,1.2681222e-17
316.50000,6.4070579e-16,1.2681222e-17
316.60000,6.3573720e-16,1.2681222e-17
316.70000,6.3313685e-16,1.2681222e-17
316.80000,6.3323606e-16,1.2681222e-17
316.90000,6.3608001e-16,1.2681222e-17
317.00000,6.4137814e-16,1.2681222e-17
317.10000,6.4854615e-16,1.2681222e-17
317.20000,6.5682957e-16,1.2681222e-17
317.30000,6.6545674e-16,1.2681222e-17
317.40000,6.7375894e-16,1.2681222e-17
317.50000,6.8122001e-16,1.2681222e-17
317.60000,6.8746159e-16,1.2681222e-17
317.70000,6.9220424e-16,1.2681222e-17
317.80000,6.9525082e-16,1.2681222e-17
317.90000,6.9651452e-16,1.2681222e-17
318.00000,6.9607630e-16,1.2681222e-17
318.10000,6.9422796e-16,1.2681222e-17
318.20000,6.9145609e-16,1.2681222e-17
318.30000,6.8834914e-16,1.2681222e-17
318.40000,6.8545119e-16,1.2681222e-17
318.50000,6.8311724e-16,1.2681222e-17
318.60000,6.8142829e-16,1.2681222e-17
318.70000,6.8019843e-16,1.2681222e-17
318.80000,6.7906451e-16,1.2681222e-17
318.90000,6.7761358e-16,1.2681222e-17
319.00000,6.7549221e-16,1.2681222e-17
319.10000,6.7245836e-16,1.2681222e-17
319.20000,6.6837177e-16,1.2681222e-17
319.30000,6.6315562e-16,1.2681222e-17
319.40000,6.5677989e-16,1.2681222e-17
319.50000,6.4930580e-16,1.2681222e-17
319.60000,6.4099066e-16,1.2681222e-17
319.70000,6.3240376e-16,1.2681222e-17
319.80000,6.2447359e-16,1.2681222e-17
319.90000,6.1839759e-16,1.2681222e-17
320.00000,6.1540132e-16,1.2681222e-17
320.10000,6.1640734e-16,1.2681222e-17
320.20000,6.2172864e-16,1.2681222e-17
320.30000,6.3090367e-16,1.2681222e-17
320.40000,6.4273867e-16,1.2681222e-17
320.50000,6.5554429e-16,1.2681222e-17
320.60000,6.6748613e-16,1.2681222e-17
320.70000,6.7694165e-16,1.2681222e-17
320.80000,6.8277159e-16,1.2681222e-17
320.90000,6.8445678e-16,1.2681222e-17
321.00000,6.8209738e-16,1.2681222e-17
321.10000,6.7630615e-16,1.2681222e-17
321.20000,6.6804233e-16,1.2681222e-17
321.30000,6.5843035e-16,1.2681222e-17
321.40000,6.4859423e-16,1.2681222e-17
321.50000,6.3952224e-16,1.2681222e-17
321.60000,6.3196639e-16,1.2681222e-17
321.70000,6.2637992e-16,1.2681222e-17
321.80000,6.2290061e-16,1.2681222e-17
321.90000,6.2138727e-16,1.2681222e-17
322.00000,6.2150725e-16,1.2681222e-17
322.10000,6.2285483e-16,1.2681222e-17
322.20000,6.2506520e-16,1.2681222e-17
322.30000,6.2788701e-16,1.2681222e-17
322.40000,6.3119199e-16,1.2681222e-17
322.50000,6.3492689e-16,1.2681222e-17
322.60000,6.3903674e-16,1.2681222e-17
322.70000,6.4339768e-16,1.2681222e-17
322.80000,6.4778751e-16,1.2681222e-17
322.90000,6.5189897e-16,1.2681222e-17
323.00000,6.5537974e-16,1.2681222e-17
323.10000,6.5787628e-16,1.2681222e-17
323.20000,6.5907017e-16,1.2681222e-17
323.30000,6.5871385e-16,1.2681222e-17
323.40000,6.5668161e-16,1.2681222e-17
323.50000,6.5303937e-16,1.2681222e-17
323.60000,6.4811093e-16,1.2681222e-17
323.70000,6.4249790e-16,1.2681222e-17
323.80000,6.3701582e-16,1.2681222e-17
323.90000,6.3254276e-16,1.2681222e-17
324.00000,6.2982234e-16,1.2681222e-17
324.10000,6.2929200e-16,1.2681222e-17
324.20000,6.3100147e-16,1.2681222e-17
324.30000,6.3464811e-16,1.2681222e-17
324.40000,6.3970668e-16,1.2681222e-17
324.50000,6.4559730e-16,1.2681222e-17
324.60000,6.5183256e-16,1.2681222e-17
324.70000,6.5810711e-16,1.2681222e-17
324.80000,6.6432413e-16,1.2681222e-17
324.90000,6.7057316e-16,1.2681222e-17
325.00000,6.7707643e-16,1.2681222e-17
325.10000,6.8411281e-16,1.2681222e-17
325.20000,6.9192508e-16,1.2681222e-17
325.30000,7.0062282e-16,1.2681222e-17
325.40000,7.1010599e-16,1.2681222e-17
325.50000,7.2003809e-16,1.2681222e-17
325.60000,7.2988507e-16,1.2681222e-17
325.70000,7.3901075e-16,1.2681222e-17
325.80000,7.4679745e-16,1.2681222e-17
325.90000,7.5275401e-16,1.2681222e-17
326.00000,7.5658567e-16,1.2681222e-17
326.10000,7.5822010e-16,1.2681222e-17
326.20000,7.5779938e-16,1.2681222e-17
326.30000,7.5565210e-16,1.2681222e-17
326.40000,7.5225430e-16,1.2681222e-17
326.50000,7.4818067e-16,1.2681222e-17
326.60000,7.4404276e-16,1.2681222e-17
326.70000,7.4041290e-16,1.2681222e-17
326.80000,7.3774030e-16,1.2681222e-17
326.90000,7.3627727e-16,1.2681222e-17
327.00000,7.3604147e-16,1.2681222e-17
327.10000,7.3683816e-16,1.2681222e-17
327.20000,7.3834744e-16,1.2681222e-17
327.30000,7.4025286e-16,1.2681222e-17
327.40000,7.4236203e-16,1.2681222e-17
327.50000,7.4466631e-16,1.2681222e-17
327.60000,7.4731115e-16,1.2681222e-17
327.70000,7.5049161e-16,1.2681222e-17
327.80000,7.5432405e-16,1.2681222e-17
327.90000,7.5875471e-16,1.2681222e-17
328.00000,7.6354360e-16,1.2681222e-17
328.10000,7.6832222e-16,1.2681222e-17
328.20000,7.7269045e-16,1.2681222e-17
328.30000,7.7630676e-16,1.2681222e-17
328.40000,7.7893930e-16,1.2681222e-17
328.50000,7.8047074e-16,1.2681222e-17
328.60000,7.8087132e-16,1.2681222e-17
328.70000,7.8016398e-16,1.2681222e-17
328.80000,7.7840168e-16,1.2681222e-17
328.90000,7.7566813e-16,1.2681222e-17
329.00000,7.7209758e-16,1.2681222e-17
329.10000,7.6790433e-16,1.2681222e-17
329.20000,7.6340591e-16,1.2681222e-17
329.30000,7.5902160e-16,1.2681222e-17
329.40000,7.5523359e-16,1.2681222e-17
329.50000,7.5251027e-16,1.2681222e-17
329.60000,7.5120755e-16,1.2681222e-17
329.70000,7.5147958e-16,1.2681222e-17
329.80000,7.5323279e-16,1.2681222e-17
329.90000,7.5614391e-16,1.2681222e-17
330.00000,7.5973680e-16,1.2681222e-17
330.10000,7.6348829e-16,1.2681222e-17
330.20000,7.6692434e-16,1.2681222e-17
330.30000,7.6967990e-16,1.2681222e-17
330.40000,7.7152003e-16,1.2681222e-17
330.50000,7.7233963e-16,1.2681222e-17
330.60000,7.7216236e-16,1.2681222e-17
330.70000,7.7114487e-16,1.2681222e-17
330.80000,7.6957436e-16,1.2681222e-17
330.90000,7.6783883e-16,1.2681222e-17
331.00000,7.6635861e-16,1.2681222e-17
331.10000,7.6548831e-16,1.2681222e-17
331.20000,7.6541769e-16,1.2681222e-17
331.30000,7.6610652e-16,1.2681222e-17
331.40000,7.6727972e-16,1.2681222e-17
331.50000,7.6848978e-16,1.2681222e-17
331.60000,7.6923238e-16,1.2681222e-17
331.70000,7.6908442e-16,1.2681222e-17
331.80000,7.6782524e-16,1.2681222e-17
331.90000,7.6550381e-16,1.2681222e-17
332.00000,7.6242867e-16,1.2681222e-17
332.10000,7.5908238e-16,1.2681222e-17
332.20000,7.5599072e-16,1.2681222e-17
332.30000,7.5359572e-16,1.2681222e-17
332.40000,7.5217863e-16,1.2681222e-17
332.50000,7.5185331e-16,1.2681222e-17
332.60000,7.5261413e-16,1.2681222e-17
332.70000,7.5439726e-16,1.2681222e-17
332.80000,7.5711509e-16,1.2681222e-17
332.90000,7.6064907e-16,1.2681222e-17
333.00000,7.6481845e-16,1.2681222e-17
333.10000,7.6935988e-16,1.2681222e-17
333.20000,7.7394384e-16,1.2681222e-17
333.30000,7.7822865e-16,1.2681222e-17
333.40000,7.8192781e-16,1.2681222e-17
333.50000,7.8486008e-16,1.2681222e-17
333.60000,7.8696359e-16,1.2681222e-17
333.70000,7.8827657e-16,1.2681222e-17
333.80000,7.8890146e-16,1.2681222e-17
333.90000,7.8897047e-16,1.2681222e-17
334.00000,7.8862086e-16,1.2681222e-17
334.10000,7.8797742e-16,1.2681222e-17
334.20000,7.8713384e-16,1.2681222e-17
334.30000,7.8612796e-16,1.2681222e-17
334.40000,7.8491361e-16,1.2681222e-17
334.50000,7.8334093e-16,1.2681222e-17
334.60000,7.8116296e-16,1.2681222e-17
334.70000,7.7808502e-16,1.2681222e-17
334.80000,7.7386231e-16,1.2681222e-17
334.90000,7.6842887e-16,1.2681222e-17
335.00000,7.6201500e-16,1.2681222e-17
335.10000,7.5519261e-16,1.2681222e-17
335.20000,7.4879692e-16,1.2681222e-17
335.30000,7.4371223e-16,1.2681222e-17
335.40000,7.4057089e-16,1.2681222e-17
335.50000,7.3946829e-16,1.2681222e-17
335.60000,7.3981405e-16,1.2681222e-17
335.70000,7.4040504e-16,1.2681222e-17
335.80000,7.3972916e-16,1.2681222e-17
335.90000,7.3642165e-16,1.2681222e-17
336.00000,7.2973073e-16,1.2681222e-17
336.10000,7.1983279e-16,1.2681222e-17
336.20000,7.0787433e-16,1.2681222e-17
336.30000,6.9569996e-16,1.2681222e-17
336.40000,6.8533176e-16,1.2681222e-17
336.50000,6.7836069e-16,1.2681222e-17
336.60000,6.7545991e-16,1.2681222e-17
336.70000,6.7620219e-16,1.2681222e-17
336.80000,6.7925947e-16,1.2681222e-17
336.90000,6.8291618e-16,1.2681222e-17
337.00000,6.8570194e-16,1.2681222e-17
337.10000,6.8690068e-16,1.2681222e-17
337.20000,6.8674730e-16,1.2681222e-17
337.30000,6.8625387e-16,1.2681222e-17
337.40000,6.8675590e-16,1.2681222e-17
337.50000,6.8937024e-16,1.2681222e-17
337.60000,6.9457216e-16,1.2681222e-17
337.70000,7.0203380e-16,1.2681222e-17
337.80000,7.1075685e-16,1.2681222e-17
337.90000,7.1942591e-16,1.2681222e-17
338.00000,7.2684341e-16,1.2681222e-17
338.10000,7.3229535e-16,1.2681222e-17
338.20000,7.3573358e-16,1.2681222e-17
338.30000,7.3772738e-16,1.2681222e-17
338.40000,7.3921237e-16,1.2681222e-17
338.50000,7.4112785e-16,1.2681222e-17
338.60000,7.4406573e-16,1.2681222e-17
338.70000,7.4804550e-16,1.2681222e-17
338.80000,7.5248394e-16,1.2681222e-17
338.90000,7.5636292e-16,1.2681222e-17
339.00000,7.5853880e-16,1.2681222e-17
339.10000,7.5810073e-16,1.2681222e-17
339.20000,7.5467813e-16,1.2681222e-17
339.30000,7.4861434e-16,1.2681222e-17
339.40000,7.4095444e-16,1.2681222e-17
339.50000,7.3323768e-16,1.2681222e-17
339.60000,7.2713560e-16,1.2681222e-17
339.70000,7.2402756e-16,1.2681222e-17
339.80000,7.2463771e-16,1.2681222e-17
339.90000,7.2885114e-16,1.2681222e-17
340.00000,7.3577453e-16,1.2681222e-17
340.10000,7.4402251e-16,1.2681222e-17
340.20000,7.5212952e-16,1.2681222e-17
340.30000,7.5894352e-16,1.2681222e-17
340.40000,7.6387236e-16,1.2681222e-17
340.50000,7.6691819e-16,1.2681222e-17
340.60000,7.6851934e-16,1.2681222e-17
340.70000,7.6928667e-16,1.2681222e-17
340.80000,7.6974488e-16,1.2681222e-17
340.90000,7.7016502e-16,1.2681222e-17
341.00000,7.7052134e-16,1.2681222e-17
341.10000,7.7055301e-16,1.2681222e-17
341.20000,7.6988323e-16,1.2681222e-17
341.30000,7.6814978e-16,1.2681222e-17
341.40000,7.6511901e-16,1.2681222e-17
341.50000,7.6077104e-16,1.2681222e-17
341.60000,7.5534647e-16,1.2681222e-17
341.70000,7.4934062e-16,1.2681222e-17
341.80000,7.4343220e-16,1.2681222e-17
341.90000,7.3834930e-16,1.2681222e-17
342.00000,7.3470123e-16,1.2681222e-17
342.10000,7.3282585e-16,1.2681222e-17
342.20000,7.3270537e-16,1.2681222e-17
342.30000,7.3398378e-16,1.2681222e-17
342.40000,7.3608527e-16,1.2681222e-17
342.50000,7.3839718e-16,1.2681222e-17
342.60000,7.4045630e-16,1.2681222e-17
342.70000,7.4207335e-16,1.2681222e-17
342.80000,7.4334888e-16,1.2681222e-17
342.90000,7.4457318e-16,1.2681222e-17
343.00000,7.4604910e-16,1.2681222e-17
343.10000,7.4791241e-16,1.2681222e-17
343.20000,7.5002901e-16,1.2681222e-17
343.30000,7.5201525e-16,1.2681222e-17
343.40000,7.5336830e-16,1.2681222e-17
343.50000,7.5363678e-16,1.2681222e-17
343.60000,7.5254083e-16,1.2681222e-17
343.70000,7.4998193e-16,1.2681222e-17
343.80000,7.4595322e-16,1.2681222e-17
343.90000,7.4042946e-16,1.2681222e-17
344.00000,7.3333908e-16,1.2681222e-17
344.10000,7.2467557e-16,1.2681222e-17
344.20000,7.1471408e-16,1.2681222e-17
344.30000,7.0421394e-16,1.2681222e-17
344.40000,6.9446468e-16,1.2681222e-17
344.50000,6.8709329e-16,1.2681222e-17
344.60000,6.8366552e-16,1.2681222e-17
344.70000,6.8522104e-16,1.2681222e-17
344.80000,6.9192313e-16,1.2681222e-17
344.90000,7.0295810e-16,1.2681222e-17
345.00000,7.1671656e-16,1.2681222e-17
345.10000,7.3118314e-16,1.2681222e-17
345.20000,7.4439996e-16,1.2681222e-17
345.30000,7.5486742e-16,1.2681222e-17
345.40000,7.6178697e-16,1.2681222e-17
345.50000,7.6510744e-16,1.2681222e-17
345.60000,7.6539038e-16,1.2681222e-17
345.70000,7.6355205e-16,1.2681222e-17
345.80000,7.6056840e-16,1.2681222e-17
345.90000,7.5723456e-16,1.2681222e-17
346.00000,7.5404567e-16,1.2681222e-17
346.10000,7.5121301e-16,1.2681222e-17
346.20000,7.4877125e-16,1.2681222e-17
346.30000,7.4669878e-16,1.2681222e-17
346.40000,7.4498380e-16,1.2681222e-17
346.50000,7.4361667e-16,1.2681222e-17
346.60000,7.4254181e-16,1.2681222e-17
346.70000,7.4162576e-16,1.2681222e-17
346.80000,7.4067909e-16,1.2681222e-17
346.90000,7.3952389e-16,1.2681222e-17
347.00000,7.3806212e-16,1.2681222e-17
347.10000,7.3629979e-16,1.2681222e-17
347.20000,7.3431786e-16,1.2681222e-17
347.30000,7.3222545e-16,1.2681222e-17
347.40000,7.3014826e-16,1.2681222e-17
347.50000,7.2827933e-16,1.2681222e-17
347.60000,7.2696506e-16,1.2681222e-17
347.70000,7.2675625e-16,1.2681222e-17
347.80000,7.2835464e-16,1.2681222e-17
347.90000,7.3243616e-16,1.2681222e-17
348.00000,7.3940465e-16,1.2681222e-17
348.10000,7.4918003e-16,1.2681222e-17
348.20000,7.6112242e-16,1.2681222e-17
348.30000,7.7413628e-16,1.2681222e-17
348.40000,7.8691812e-16,1.2681222e-17
348.50000,7.9824883e-16,1.2681222e-17
348.60000,8.0721972e-16,1.2681222e-17
348.70000,8.1332287e-16,1.2681222e-17
348.80000,8.1640663e-16,1.2681222e-17
348.90000,8.1655957e-16,1.2681222e-17
349.00000,8.1400776e-16,1.2681222e-17
349.10000,8.0908448e-16,1.2681222e-17
349.20000,8.0227509e-16,1.2681222e-17
349.30000,7.9428506e-16,1.2681222e-17
349.40000,7.8605814e-16,1.2681222e-17
349.50000,7.7869384e-16,1.2681222e-17
349.60000,7.7326756e-16,1.2681222e-17
349.70000,7.7061113e-16,1.2681222e-17
349.80000,7.7113703e-16,1.2681222e-17
349.90000,7.7477231e-16,1.2681222e-17
350.00000,7.8101831e-16,1.2681222e-17
350.10000,7.8909880e-16,1.2681222e-17
350.20000,7.9813014e-16,1.2681222e-17
350.30000,8.0725457e-16,1.2681222e-17
350.40000,8.1571266e-16,1.2681222e-17
350.50000,8.2286820e-16,1.2681222e-17
350.60000,8.2821773e-16,1.2681222e-17
350.70000,8.3140896e-16,1.2681222e-17
350.80000,8.3226966e-16,1.2681222e-17
350.90000,8.3082771e-16,1.2681222e-17
351.00000,8.2729962e-16,1.2681222e-17
351.10000,8.2204096e-16,1.2681222e-17
351.20000,8.1547691e-16,1.2681222e-17
351.30000,8.0804823e-16,1.2681222e-17
351.40000,8.0020281e-16,1.2681222e-17
351.50000,7.9243423e-16,1.2681222e-17
351.60000,7.8533026e-16,1.2681222e-17
351.70000,7.7957102e-16,1.2681222e-17
351.80000,7.7582864e-16,1.2681222e-17
351.90000,7.7456941e-16,1.2681222e-17
352.00000,7.7582289e-16,1.2681222e-17
352.10000,7.7902336e-16,1.2681222e-17
352.20000,7.8302074e-16,1.2681222e-17
352.30000,7.8629845e-16,1.2681222e-17
352.40000,7.8735315e-16,1.2681222e-17
