wave,flux,fluxerr
300.00000,1.0554831e-16,5.4266558e-18
300.10000,1.0263161e-16,5.4266558e-18
300.20000,1.0059404e-16,5.4266558e-18
300.30000,9.9707741e-17,5.4266558e-18
300.40000,1.0005112e-16,5.4266558e-18
300.50000,1.0153632e-16,5.4266558e-18
300.60000,1.0396714e-16,5.4266558e-18
300.70000,1.0708925e-16,5.4266558e-18
300.80000,1.1060868e-16,5.4266558e-18
300.90000,1.1418128e-16,5.4266558e-18
301.00000,1.1739914e-16,5.4266558e-18
301.10000,1.1980622e-16,5.4266558e-18
301.20000,1.2096162e-16,5.4266558e-18
301.30000,1.2054363e-16,5.4266558e-18
301.40000,1.1846259e-16,5.4266558e-18
301.50000,1.1493892e-16,5.4266558e-18
301.60000,1.1050825e-16,5.4266558e-18
301.70000,1.0593841e-16,5.4266558e-18
301.80000,1.0207312e-16,5.4266558e-18
301.90000,9.9645710e-17,5.4266558e-18
302.00000,9.9118801e-17,5.4266558e-18
302.10000,1.0059858e-16,5.4266558e-18
302.20000,1.0384600e-16,5.4266558e-18
302.30000,1.0837299e-16,5.4266558e-18
302.40000,1.1358492e-16,5.4266558e-18
302.50000,1.1892067e-16,5.4266558e-18
302.60000,1.2395128e-16,5.4266558e-18
302.70000,1.2841886e-16,5.4266558e-18
302.80000,1.3221947e-16,5.4266558e-18
302.90000,1.3534964e-16,5.4266558e-18
303.00000,1.3784322e-16,5.4266558e-18
303.10000,1.3972381e-16,5.4266558e-18
303.20000,1.4098932e-16,5.4266558e-18
303.30000,1.4163012e-16,5.4266558e-18
303.40000,1.4166678e-16,5.4266558e-18
303.50000,1.4118374e-16,5.4266558e-18
303.60000,1.4033746e-16,5.4266558e-18
303.70000,1.3933138e-16,5.4266558e-18
303.80000,1.3836743e-16,5.4266558e-18
303.90000,1.3759554e-16,5.4266558e-18
304.00000,1.3708244e-16,5.4266558e-18
304.10000,1.3681171e-16,5.4266558e-18
304.20000,1.3671293e-16,5.4266558e-18
304.30000,1.3670693e-16,5.4266558e-18
304.40000,1.3674826e-16,5.4266558e-18
304.50000,1.3684675e-16,5.4266558e-18
304.60000,1.3705747e-16,5.4266558e-18
304.70000,1.3744069e-16,5.4266558e-18
304.80000,1.3800767e-16,5.4266558e-18
304.90000,1.3867751e-16,5.4266558e-18
305.00000,1.3927050e-16,5.4266558e-18
305.10000,1.3955052e-16,5.4266558e-18
305.20000,1.3930872e-16,5.4266558e-18
305.30000,1.3845948e-16,5.4266558e-18
305.40000,1.3710859e-16,5.4266558e-18
305.50000,1.3555811e-16,5.4266558e-18
305.60000,1.3423512e-16,5.4266558e-18
305.70000,1.3356307e-16,5.4266558e-18
305.80000,1.3382293e-16,5.4266558e-18
305.90000,1.3506031e-16,5.4266558e-18
306.00000,1.3707831e-16,5.4266558e-18
306.10000,1.3951896e-16,5.4266558e-18
306.20000,1.4199639e-16,5.4266558e-18
306.30000,1.4422312e-16,5.4266558e-18
306.40000,1.4607760e-16,5.4266558e-18
306.50000,1.4759279e-16,5.4266558e-18
306.60000,1.4888363e-16,5.4266558e-18
306.70000,1.5005690e-16,5.4266558e-18
306.80000,1.5114779e-16,5.4266558e-18
306.90000,1.5210640e-16,5.4266558e-18
307.00000,1.5282918e-16,5.4266558e-18
307.10000,1.5320980e-16,5.4266558e-18
307.20000,1.5318112e-16,5.4266558e-18
307.30000,1.5273231e-16,5.4266558e-18
307.40000,1.5190258e-16,5.4266558e-18
307.50000,1.5076465e-16,5.4266558e-18
307.60000,1.4941090e-16,5.4266558e-18
307.70000,1.4794595e-16,5.4266558e-18
307.80000,1.4647926e-16,5.4266558e-18
307.90000,1.4510799e-16,5.4266558e-18
308.00000,1.4388630e-16,5.4266558e-18
308.10000,1.4279047e-16,5.4266558e-18
308.20000,1.4169899e-16,5.4266558e-18
308.30000,1.4040726e-16,5.4266558e-18
308.40000,1.3868368e-16,5.4266558e-18
308.50000,1.3635344e-16,5.4266558e-18
308.60000,1.3337861e-16,5.4266558e-18
308.70000,1.2989876e-16,5.4266558e-18
308.80000,1.2620905e-16,5.4266558e-18
308.90000,1.2267854e-16,5.4266558e-18
309.00000,1.1963800e-16,5.4266558e-18
309.10000,1.1728231e-16,5.4266558e-18
309.20000,1.1562870e-16,5.4266558e-18
309.30000,1.1454978e-16,5.4266558e-18
309.40000,1.1386827e-16,5.4266558e-18
309.50000,1.1347289e-16,5.4266558e-18
309.60000,1.1340444e-16,5.4266558e-18
309.70000,1.1387397e-16,5.4266558e-18
309.80000,1.1520451e-16,5.4266558e-18
309.90000,1.1772011e-16,5.4266558e-18
310.00000,1.2162659e-16,5.4266558e-18
310.10000,1.2692757e-16,5.4266558e-18
310.20000,1.3340101e-16,5.4266558e-18
310.30000,1.4063560e-16,5.4266558e-18
310.40000,1.4810684e-16,5.4266558e-18
310.50000,1.5526566e-16,5.4266558e-18
310.60000,1.6161798e-16,5.4266558e-18
310.70000,1.6678432e-16,5.4266558e-18
310.80000,1.7053686e-16,5.4266558e-18
310.90000,1.7281424e-16,5.4266558e-18
311.00000,1.7371408e-16,5.4266558e-18
311.10000,1.7346314e-16,5.4266558e-18
311.20000,1.7236868e-16,5.4266558e-18
311.30000,1.7076023e-16,5.4266558e-18
311.40000,1.6893564e-16,5.4266558e-18
311.50000,1.6712454e-16,5.4266558e-18
311.60000,1.6547691e-16,5.4266558e-18
311.70000,1.6407548e-16,5.4266558e-18
311.80000,1.6296247e-16,5.4266558e-18
311.90000,1.6216770e-16,5.4266558e-18
312.00000,1.6172588e-16,5.4266558e-18
312.10000,1.6167597e-16,5.4266558e-18
312.20000,1.6204206e-16,5.4266558e-18
312.30000,1.6280307e-16,5.4266558e-18
312.40000,1.6386499e-16,5.4266558e-18
312.50000,1.6505236e-16,5.4266558e-18
312.60000,1.6613221e-16,5.4266558e-18
312.70000,1.6687167e-16,5.4266558e-18
312.80000,1.6711414e-16,5.4266558e-18
312.90000,1.6684488e-16,5.4266558e-18
313.00000,1.6621436e-16,5.4266558e-18
313.10000,1.6550062e-16,5.4266558e-18
313.20000,1.6501633e-16,5.4266558e-18
313.30000,1.6499119e-16,5.4266558e-18
313.40000,1.6547366e-16,5.4266558e-18
313.50000,1.6629128e-16,5.4266558e-18
313.60000,1.6708722e-16,5.4266558e-18
313.70000,1.6742350e-16,5.4266558e-18
313.80000,1.6691856e-16,5.4266558e-18
313.90000,1.6537674e-16,5.4266558e-18
314.00000,1.6287099e-16,5.4266558e-18
314.10000,1.5975392e-16,5.4266558e-18
314.20000,1.5659148e-16,5.4266558e-18
314.30000,1.5403402e-16,5.4266558e-18
314.40000,1.5265658e-16,5.4266558e-18
314.50000,1.5281003e-16,5.4266558e-18
314.60000,1.5452409e-16,5.4266558e-18
314.70000,1.5748987e-16,5.4266558e-18
314.80000,1.6112795e-16,5.4266558e-18
314.90000,1.6472370e-16,5.4266558e-18
315.00000,1.6759214e-16,5.4266558e-18
315.10000,1.6922698e-16,5.4266558e-18
315.20000,1.6939444e-16,5.4266558e-18
315.30000,1.6814997e-16,5.4266558e-18
315.40000,1.6578048e-16,5.4266558e-18
315.50000,1.6269750e-16,5.4266558e-18
315.60000,1.5932095e-16,5.4266558e-18
315.70000,1.5599258e-16,5.4266558e-18
315.80000,1.5294303e-16,5.4266558e-18
315.90000,1.5031186e-16,5.4266558e-18
316.00000,1.4819704e-16,5.4266558e-18
316.10000,1.4669980e-16,5.4266558e-18
316.20000,1.4593818e-16,5.4266558e-18
316.30000,1.4602347e-16,5.4266558e-18
316.40000,1.4701575e-16,5.4266558e-18
316.50000,1.4888599e-16,5.4266558e-18
316.60000,1.5150567e-16,5.4266558e-18
316.70000,1.5466792e-16,5.4266558e-18
316.80000,1.5812667e-16,5.4266558e-18
316.90000,1.6163376e-16,5.4266558e-18
317.00000,1.6496063e-16,5.4266558e-18
317.10000,1.6790435e-16,5.4266558e-18
317.20000,1.7028865e-16,5.4266558e-18
317.30000,1.7197220e-16,5.4266558e-18
317.40000,1.7286815e-16,5.4266558e-18
317.50000,1.7296768e-16,5.4266558e-18
317.60000,1.7235298e-16,5.4266558e-18
317.70000,1.7118731e-16,5.4266558e-18
317.80000,1.6968016e-16,5.4266558e-18
317.90000,1.6803854e-16,5.4266558e-18
318.00000,1.6642221e-16,5.4266558e-18
318.10000,1.6491876e-16,5.4266558e-18
318.20000,1.6354393e-16,5.4266558e-18
318.30000,1.6226088e-16,5.4266558e-18
318.40000,1.6100506e-16,5.4266558e-18
318.50000,1.5970222e-16,5.4266558e-18
318.60000,1.5827527e-16,5.4266558e-18
318.70000,1.5664528e-16,5.4266558e-18
318.80000,1.5473852e-16,5.4266558e-18
318.90000,1.5251049e-16,5.4266558e-18
319.00000,1.4998754e-16,5.4266558e-18
319.10000,1.4731269e-16,5.4266558e-18
319.20000,1.4477067e-16,5.4266558e-18
319.30000,1.4276759e-16,5.4266558e-18
319.40000,1.4175607e-16,5.4266558e-18
319.50000,1.4212058e-16,5.4266558e-18
319.60000,1.4405957e-16,5.4266558e-18
319.70000,1.4750673e-16,5.4266558e-18
319.80000,1.5212081e-16,5.4266558e-18
319.90000,1.5734732e-16,5.4266558e-18
320.00000,1.6253066e-16,5.4266558e-18
320.10000,1.6704116e-16,5.4266558e-18
320.20000,1.7038362e-16,5.4266558e-18
320.30000,1.7226569e-16,5.4266558e-18
320.40000,1.7261955e-16,5.4266558e-18
320.50000,1.7158215e-16,5.4266558e-18
320.60000,1.6944672e-16,5.4266558e-18
320.70000,1.6660028e-16,5.4266558e-18
320.80000,1.6346028e-16,5.4266558e-18
320.90000,1.6041899e-16,5.4266558e-18
321.00000,1.5779960e-16,5.4266558e-18
321.10000,1.5582473e-16,5.4266558e-18
321.20000,1.5459818e-16,5.4266558e-18
321.30000,1.5410259e-16,5.4266558e-18
321.40000,1.5421567e-16,5.4266558e-18
321.50000,1.5474447e-16,5.4266558e-18
321.60000,1.5547142e-16,5.4266558e-18
321.70000,1.5620063e-16,5.4266558e-18
321.80000,1.5679219e-16,5.4266558e-18
321.90000,1.5717675e-16,5.4266558e-18
322.00000,1.5735007e-16,5.4266558e-18
322.10000,1.5735428e-16,5.4266558e-18
322.20000,1.5725495e-16,5.4266558e-18
322.30000,1.5712118e-16,5.4266558e-18
322.40000,1.5701045e-16,5.4266558e-18
322.50000,1.5695712e-16,5.4266558e-18
322.60000,1.5696332e-16,5.4266558e-18
322.70000,1.5699550e-16,5.4266558e-18
322.80000,1.5699241e-16,5.4266558e-18
322.90000,1.5688854e-16,5.4266558e-18
323.00000,1.5664853e-16,5.4266558e-18
323.10000,1.5629879e-16,5.4266558e-18
323.20000,1.5593905e-16,5.4266558e-18
323.30000,1.5572334e-16,5.4266558e-18
323.40000,1.5581475e-16,5.4266558e-18
323.50000,1.5633237e-16,5.4266558e-18
323.60000,1.5731390e-16,5.4266558e-18
323.70000,1.5870941e-16,5.4266558e-18
323.80000,1.6040636e-16,5.4266558e-18
323.90000,1.6227159e-16,5.4266558e-18
324.00000,1.6419140e-16,5.4266558e-18
324.10000,1.6609584e-16,5.4266558e-18
324.20000,1.6796495e-16,5.4266558e-18
324.30000,1.6982294e-16,5.4266558e-18
324.40000,1.7172781e-16,5.4266558e-18
324.50000,1.7375940e-16,5.4266558e-18
324.60000,1.7600337e-16,5.4266558e-18
324.70000,1.7852863e-16,5.4266558e-18
324.80000,1.8136029e-16,5.4266558e-18
324.90000,1.8445707e-16,5.4266558e-18
325.00000,1.8770322e-16,5.4266558e-18
325.10000,1.9092053e-16,5.4266558e-18
325.20000,1.9389730e-16,5.4266558e-18
325.30000,1.9642475e-16,5.4266558e-18
325.40000,1.9833061e-16,5.4266558e-18
325.50000,1.9950340e-16,5.4266558e-18
325.60000,1.9990592e-16,5.4266558e-18
325.70000,1.9957954e-16,5.4266558e-18
325.80000,1.9864025e-16,5.4266558e-18
325.90000,1.9726643e-16,5.4266558e-18
326.00000,1.9567737e-16,5.4266558e-18
326.10000,1.9410279e-16,5.4266558e-18
326.20000,1.9274634e-16,5.4266558e-18
326.30000,1.9175001e-16,5.4266558e-18
326.40000,1.9116983e-16,5.4266558e-18
326.50000,1.9097329e-16,5.4266558e-18
326.60000,1.9106412e-16,5.4266558e-18
326.70000,1.9132952e-16,5.4266558e-18
326.80000,1.9169310e-16,5.4266558e-18
326.90000,1.9215098e-16,5.4266558e-18
327.00000,1.9277321e-16,5.4266558e-18
327.10000,1.9366850e-16,5.4266558e-18
327.20000,1.9492766e-16,5.4266558e-18
327.30000,1.9657207e-16,5.4266558e-18
327.40000,1.9852957e-16,5.4266558e-18
327.50000,2.0064596e-16,5.4266558e-18
327.60000,2.0272333e-16,5.4266558e-18
327.70000,2.0456598e-16,5.4266558e-18
327.80000,2.0601576e-16,5.4266558e-18
327.90000,2.0696773e-16,5.4266558e-18
328.00000,2.0736801e-16,5.4266558e-18
328.10000,2.0720252e-16,5.4266558e-18
328.20000,2.0648644e-16,5.4266558e-18
328.30000,2.0526054e-16,5.4266558e-18
328.40000,2.0359498e-16,5.4266558e-18
328.50000,2.0159681e-16,5.4266558e-18
328.60000,1.9941537e-16,5.4266558e-18
328.70000,1.9723880e-16,5.4266558e-18
328.80000,1.9527706e-16,5.4266558e-18
328.90000,1.9373140e-16,5.4266558e-18
329.00000,1.9275600e-16,5.4266558e-18
329.10000,1.9242346e-16,5.4266558e-18
329.20000,1.9270727e-16,5.4266558e-18
329.30000,1.9348980e-16,5.4266558e-18
329.40000,1.9459396e-16,5.4266558e-18
329.50000,1.9582586e-16,5.4266558e-18
329.60000,1.9701137e-16,5.4266558e-18
329.70000,1.9801422e-16,5.4266558e-18
329.80000,1.9873581e-16,5.4266558e-18
329.90000,1.9910782e-16,5.4266558e-18
330.00000,1.9909167e-16,5.4266558e-18
330.10000,1.9869075e-16,5.4266558e-18
330.20000,1.9796875e-16,5.4266558e-18
330.30000,1.9705863e-16,5.4266558e-18
330.40000,1.9614837e-16,5.4266558e-18
330.50000,1.9544035e-16,5.4266558e-18
330.60000,1.9509516e-16,5.4266558e-18
330.70000,1.9517904e-16,5.4266558e-18
330.80000,1.9563454e-16,5.4266558e-18
330.90000,1.9628622e-16,5.4266558e-18
331.00000,1.9688200e-16,5.4266558e-18
331.10000,1.9715947e-16,5.4266558e-18
331.20000,1.9691844e-16,5.4266558e-18
331.30000,1.9607737e-16,5.4266558e-18
331.40000,1.9469507e-16,5.4266558e-18
331.50000,1.9295021e-16,5.4266558e-18
331.60000,1.9108730e-16,5.4266558e-18
331.70000,1.8935180e-16,5.4266558e-18
331.80000,1.8794089e-16,5.4266558e-18
331.90000,1.8698685e-16,5.4266558e-18
332.00000,1.8657097e-16,5.4266558e-18
332.10000,1.8674888e-16,5.4266558e-18
332.20000,1.8756346e-16,5.4266558e-18
332.30000,1.8903289e-16,5.4266558e-18
332.40000,1.9112032e-16,5.4266558e-18
332.50000,1.9370664e-16,5.4266558e-18
332.60000,1.9658804e-16,5.4266558e-18
332.70000,1.9950605e-16,5.4266558e-18
332.80000,2.0219984e-16,5.4266558e-18
332.90000,2.0445887e-16,5.4266558e-18
333.00000,2.0615653e-16,5.4266558e-18
333.10000,2.0725654e-16,5.4266558e-18
333.20000,2.0779748e-16,5.4266558e-18
333.30000,2.0786719e-16,5.4266558e-18
333.40000,2.0757754e-16,5.4266558e-18
333.50000,2.0704431e-16,5.4266558e-18
333.60000,2.0637110e-16,5.4266558e-18
333.70000,2.0563513e-16,5.4266558e-18
333.80000,2.0487402e-16,5.4266558e-18
333.90000,2.0407642e-16,5.4266558e-18
334.00000,2.0318165e-16,5.4266558e-18
334.10000,2.0209385e-16,5.4266558e-18
334.20000,2.0071308e-16,5.4266558e-18
334.30000,1.9897950e-16,5.4266558e-18
334.40000,1.9691806e-16,5.4266558e-18
334.50000,1.9466441e-16,5.4266558e-18
334.60000,1.9245222e-16,5.4266558e-18
334.70000,1.9055253e-16,5.4266558e-18
334.80000,1.8917508e-16,5.4266558e-18
334.90000,1.8836297e-16,5.4266558e-18
335.00000,1.8792440e-16,5.4266558e-18
335.10000,1.8744040e-16,5.4266558e-18
335.20000,1.8636349e-16,5.4266558e-18
335.30000,1.8418777e-16,5.4266558e-18
335.40000,1.8063860e-16,5.4266558e-18
335.50000,1.7581417e-16,5.4266558e-18
335.60000,1.7021890e-16,5.4266558e-18
335.70000,1.6466146e-16,5.4266558e-18
335.80000,1.6003737e-16,5.4266558e-18
335.90000,1.5706230e-16,5.4266558e-18
336.00000,1.5604809e-16,5.4266558e-18
336.10000,1.5680460e-16,5.4266558e-18
336.20000,1.5870795e-16,5.4266558e-18
336.30000,1.6091326e-16,5.4266558e-18
336.40000,1.6263522e-16,5.4266558e-18
336.50000,1.6339498e-16,5.4266558e-18
336.60000,1.6314847e-16,5.4266558e-18
336.70000,1.6225909e-16,5.4266558e-18
336.80000,1.6133698e-16,5.4266558e-18
336.90000,1.6101189e-16,5.4266558e-18
337.00000,1.6172302e-16,5.4266558e-18
337.10000,1.6359364e-16,5.4266558e-18
337.20000,1.6642213e-16,5.4266558e-18
337.30000,1.6977824e-16,5.4266558e-18
337.40000,1.7316095e-16,5.4266558e-18
337.50000,1.7615951e-16,5.4266558e-18
337.60000,1.7856523e-16,5.4266558e-18
337.70000,1.8040286e-16,5.4266558e-18
337.80000,1.8188001e-16,5.4266558e-18
337.90000,1.8327930e-16,5.4266558e-18
338.00000,1.8483513e-16,5.4266558e-18
338.10000,1.8663763e-16,5.4266558e-18
338.20000,1.8859365e-16,5.4266558e-18
338.30000,1.9045280e-16,5.4266558e-18
338.40000,1.9188581e-16,5.4266558e-18
338.50000,1.9258885e-16,5.4266558e-18
338.60000,1.9238404e-16,5.4266558e-18
338.70000,1.9129002e-16,5.4266558e-18
338.80000,1.8954404e-16,5.4266558e-18
338.90000,1.8756642e-16,5.4266558e-18
339.00000,1.8587079e-16,5.4266558e-18
339.10000,1.8493906e-16,5.4266558e-18
339.20000,1.8509398e-16,5.4266558e-18
339.30000,1.8640908e-16,5.4266558e-18
339.40000,1.8868744e-16,5.4266558e-18
339.50000,1.9151910e-16,5.4266558e-18
339.60000,1.9439865e-16,5.4266558e-18
339.70000,1.9686298e-16,5.4266558e-18
339.80000,1.9860275e-16,5.4266558e-18
339.90000,1.9951366e-16,5.4266558e-18
340.00000,1.9967851e-16,5.4266558e-18
340.10000,1.9929653e-16,5.4266558e-18
340.20000,1.9859310e-16,5.4266558e-18
340.30000,1.9774330e-16,5.4266558e-18
340.40000,1.9683054e-16,5.4266558e-18
340.50000,1.9584411e-16,5.4266558e-18
340.60000,1.9470608e-16,5.4266558e-18
340.70000,1.9331386e-16,5.4266558e-18
340.80000,1.9158700e-16,5.4266558e-18
340.90000,1.8951057e-16,5.4266558e-18
341.00000,1.8716667e-16,5.4266558e-18
341.10000,1.8474366e-16,5.4266558e-18
341.20000,1.8251258e-16,5.4266558e-18
341.30000,1.8076893e-16,5.4266558e-18
341.40000,1.7975253e-16,5.4266558e-18
341.50000,1.7957184e-16,5.4266558e-18
341.60000,1.8016310e-16,5.4266558e-18
341.70000,1.8130410e-16,5.4266558e-18
341.80000,1.8268165e-16,5.4266558e-18
341.90000,1.8399026e-16,5.4266558e-18
342.00000,1.8502601e-16,5.4266558e-18
342.10000,1.8574116e-16,5.4266558e-18
342.20000,1.8623960e-16,5.4266558e-18
342.30000,1.8671557e-16,5.4266558e-18
342.40000,1.8736000e-16,5.4266558e-18
342.50000,1.8827142e-16,5.4266558e-18
342.60000,1.8940635e-16,5.4266558e-18
342.70000,1.9058765e-16,5.4266558e-18
342.80000,1.9156446e-16,5.4266558e-18
342.90000,1.9209459e-16,5.4266558e-18
343.00000,1.9201155e-16,5.4266558e-18
343.10000,1.9124815e-16,5.4266558e-18
343.20000,1.8981374e-16,5.4266558e-18
343.30000,1.8774843e-16,5.4266558e-18
343.40000,1.8509109e-16,5.4266558e-18
343.50000,1.8188843e-16,5.4266558e-18
343.60000,1.7824536e-16,5.4266558e-18
343.70000,1.7438738e-16,5.4266558e-18
343.80000,1.7069143e-16,5.4266558e-18
343.90000,1.6765299e-16,5.4266558e-18
344.00000,1.6578748e-16,5.4266558e-18
344.10000,1.6549745e-16,5.4266558e-18
344.20000,1.6695488e-16,5.4266558e-18
344.30000,1.7004251e-16,5.4266558e-18
344.40000,1.7437351e-16,5.4266558e-18
344.50000,1.7937999e-16,5.4266558e-18
344.60000,1.8443978e-16,5.4266558e-18
344.70000,1.8900418e-16,5.4266558e-18
344.80000,1.9269456e-16,5.4266558e-18
344.90000,1.9534733e-16,5.4266558e-18
345.00000,1.9700153e-16,5.4266558e-18
345.10000,1.9783833e-16,5.4266558e-18
345.20000,1.9809571e-16,5.4266558e-18
345.30000,1.9798858e-16,5.4266558e-18
345.40000,1.9766079e-16,5.4266558e-18
345.50000,1.9717960e-16,5.4266558e-18
345.60000,1.9656290e-16,5.4266558e-18
345.70000,1.9581580e-16,5.4266558e-18
345.80000,1.9495374e-16,5.4266558e-18
345.90000,1.9400378e-16,5.4266558e-18
346.00000,1.9299253e-16,5.4266558e-18
346.10000,1.9193755e-16,5.4266558e-18
346.20000,1.9085318e-16,5.4266558e-18
346.30000,1.8976663e-16,5.4266558e-18
346.40000,1.8872888e-16,5.4266558e-18
346.50000,1.8780641e-16,5.4266558e-18
346.60000,1.8705460e-16,5.4266558e-18
346.70000,1.8649083e-16,5.4266558e-18
346.80000,1.8609155e-16,5.4266558e-18
346.90000,1.8582538e-16,5.4266558e-18
347.00000,1.8571024e-16,5.4266558e-18
347.10000,1.8586181e-16,5.4266558e-18
347.20000,1.8649758e-16,5.4266558e-18
347.30000,1.8788074e-16,5.4266558e-18
347.40000,1.9021973e-16,5.4266558e-18
347.50000,1.9356570e-16,5.4266558e-18
347.60000,1.9775560e-16,5.4266558e-18
347.70000,2.0242914e-16,5.4266558e-18
347.80000,2.0711458e-16,5.4266558e-18
347.90000,2.1134696e-16,5.4266558e-18
348.00000,2.1477063e-16,5.4266558e-18
348.10000,2.1718919e-16,5.4266558e-18
348.20000,2.1855473e-16,5.4266558e-18
348.30000,2.1891774e-16,5.4266558e-18
348.40000,2.1837382e-16,5.4266558e-18
348.50000,2.1703805e-16,5.4266558e-18
348.60000,2.1505489e-16,5.4266558e-18
348.70000,2.1262728e-16,5.4266558e-18
348.80000,2.1003545e-16,5.4266558e-18
348.90000,2.0762149e-16,5.4266558e-18
349.00000,2.0573637e-16,5.4266558e-18
349.10000,2.0466813e-16,5.4266558e-18
349.20000,2.0458145e-16,5.4266558e-18
349.30000,2.0549309e-16,5.4266558e-18
349.40000,2.0728872e-16,5.4266558e-18
349.50000,2.0976641e-16,5.4266558e-18
349.60000,2.1268306e-16,5.4266558e-18
349.70000,2.1578447e-16,5.4266558e-18
349.80000,2.1881609e-16,5.4266558e-18
349.90000,2.2152494e-16,5.4266558e-18
350.00000,2.2411312e-16,5.4266558e-18
350.10000,2.3023998e-16,5.9721291e-18
350.20000,2.1401008e-16,1.1256769e-17
350.30000,2.1101372e-16,1.1314575e-17
350.40000,2.1071598e-16,7.2692555e-18
350.50000,2.1140654e-16,1.2462433e-17
350.60000,2.0839657e-16,1.4275679e-17
350.70000,2.0719587e-16,1.1300205e-17
350.80000,2.0713353e-16,1.1670203e-17
350.90000,2.0754508e-16,1.2114497e-17
351.00000,2.1095658e-16,1.2798541e-17
351.10000,2.1348825e-16,9.6362900e-18
351.20000,2.1713547e-16,1.2460223e-17
351.30000,2.1776624e-16,1.3102082e-17
351.40000,2.1929198e-16,1.7270795e-17
351.50000,2.1846216e-16,8.9636810e-18
351.60000,2.1590238e-16,1.3804940e-17
351.70000,2.1413271e-16,1.5897031e-17
351.80000,2.0901235e-16,1.2764396e-17
351.90000,2.0445557e-16,1.3964510e-17
352.00000,2.0667273e-16,1.1192273e-17
352.10000,2.1459881e-16,1.3393991e-17
352.20000,2.2261546e-16,1.5561303e-17
352.30000,2.3082986e-16,1.3475932e-17
352.40000,2.3823040e-16,2.4812614e-17
