wave,flux,fluxerr
300.00000,2.4847607e-17,6.6128277e-17
300.10000,2.4895703e-17,6.6128277e-17
300.20000,2.5148758e-17,6.6128277e-17
300.30000,2.5581972e-17,6.6128277e-17
300.40000,2.6150747e-17,6.6128277e-17
300.50000,2.6796650e-17,6.6128277e-17
300.60000,2.7450345e-17,6.6128277e-17
300.70000,2.8032654e-17,6.6128277e-17
300.80000,2.8457808e-17,6.6128277e-17
300.90000,2.8642622e-17,6.6128277e-17
301.00000,2.8521920e-17,6.6128277e-17
301.10000,2.8066447e-17,6.6128277e-17
301.20000,2.7297188e-17,6.6128277e-17
301.30000,2.6290550e-17,6.6128277e-17
301.40000,2.5171735e-17,6.6128277e-17
301.50000,2.4097302e-17,6.6128277e-17
301.60000,2.3230936e-17,6.6128277e-17
301.70000,2.2718042e-17,6.6128277e-17
301.80000,2.2664726e-17,6.6128277e-17
301.90000,2.3125167e-17,6.6128277e-17
302.00000,2.4098784e-17,6.6128277e-17
302.10000,2.5535881e-17,6.6128277e-17
302.20000,2.7348537e-17,6.6128277e-17
302.30000,2.9423022e-17,6.6128277e-17
302.40000,3.1630974e-17,6.6128277e-17
302.50000,3.3838178e-17,6.6128277e-17
302.60000,3.5911405e-17,6.6128277e-17
302.70000,3.7724895e-17,6.6128277e-17
302.80000,3.9168440e-17,6.6128277e-17
302.90000,4.0158319e-17,6.6128277e-17
303.00000,4.0650438e-17,6.6128277e-17
303.10000,4.0652223e-17,6.6128277e-17
303.20000,4.0227722e-17,6.6128277e-17
303.30000,3.9490686e-17,6.6128277e-17
303.40000,3.8584148e-17,6.6128277e-17
303.50000,3.7650763e-17,6.6128277e-17
303.60000,3.6803082e-17,6.6128277e-17
303.70000,3.6103975e-17,6.6128277e-17
303.80000,3.5563841e-17,6.6128277e-17
303.90000,3.5154752e-17,6.6128277e-17
304.00000,3.4835331e-17,6.6128277e-17
304.10000,3.4576613e-17,6.6128277e-17
304.20000,3.4379195e-17,6.6128277e-17
304.30000,3.4275350e-17,6.6128277e-17
304.40000,3.4315161e-17,6.6128277e-17
304.50000,3.4541676e-17,6.6128277e-17
304.60000,3.4964840e-17,6.6128277e-17
304.70000,3.5545615e-17,6.6128277e-17
304.80000,3.6199020e-17,6.6128277e-17
304.90000,3.6818202e-17,6.6128277e-17
305.00000,3.7313266e-17,6.6128277e-17
305.10000,3.7651715e-17,6.6128277e-17
305.20000,3.7884928e-17,6.6128277e-17
305.30000,3.8148430e-17,6.6128277e-17
305.40000,3.8632265e-17,6.6128277e-17
305.50000,3.9528933e-17,6.6128277e-17
305.60000,4.0976300e-17,6.6128277e-17
305.70000,4.3017063e-17,6.6128277e-17
305.80000,4.5591869e-17,6.6128277e-17
305.90000,4.8569954e-17,6.6128277e-17
306.00000,5.1804144e-17,6.6128277e-17
306.10000,5.5184102e-17,6.6128277e-17
306.20000,5.8660622e-17,6.6128277e-17
306.30000,6.2226925e-17,6.6128277e-17
306.40000,6.5865052e-17,6.6128277e-17
306.50000,6.9485216e-17,6.6128277e-17
306.60000,7.2892099e-17,6.6128277e-17
306.70000,7.5800182e-17,6.6128277e-17
306.80000,7.7896057e-17,6.6128277e-17
306.90000,7.8922364e-17,6.6128277e-17
307.00000,7.8748233e-17,6.6128277e-17
307.10000,7.7399686e-17,6.6128277e-17
307.20000,7.5044575e-17,6.6128277e-17
307.30000,7.1947512e-17,6.6128277e-17
307.40000,6.8419429e-17,6.6128277e-17
307.50000,6.4780175e-17,6.6128277e-17
307.60000,6.1336791e-17,6.6128277e-17
307.70000,5.8366207e-17,6.6128277e-17
307.80000,5.6088361e-17,6.6128277e-17
307.90000,5.4625828e-17,6.6128277e-17
308.00000,5.3962146e-17,6.6128277e-17
308.10000,5.3921956e-17,6.6128277e-17
308.20000,5.4193616e-17,6.6128277e-17
308.30000,5.4398817e-17,6.6128277e-17
308.40000,5.4191899e-17,6.6128277e-17
308.50000,5.3355606e-17,6.6128277e-17
308.60000,5.1858684e-17,6.6128277e-17
308.70000,4.9854943e-17,6.6128277e-17
308.80000,4.7626590e-17,6.6128277e-17
308.90000,4.5496205e-17,6.6128277e-17
309.00000,4.3742365e-17,6.6128277e-17
309.10000,4.2549947e-17,6.6128277e-17
309.20000,4.2009866e-17,6.6128277e-17
309.30000,4.2161991e-17,6.6128277e-17
309.40000,4.3057661e-17,6.6128277e-17
309.50000,4.4811495e-17,6.6128277e-17
309.60000,4.7617912e-17,6.6128277e-17
309.70000,5.1723007e-17,6.6128277e-17
309.80000,5.7360237e-17,6.6128277e-17
309.90000,6.4671539e-17,6.6128277e-17
310.00000,7.3639297e-17,6.6128277e-17
310.10000,8.4049008e-17,6.6128277e-17
310.20000,9.5491501e-17,6.6128277e-17
310.30000,1.0740250e-16,6.6128277e-17
310.40000,1.1913009e-16,6.6128277e-17
310.50000,1.3001778e-16,6.6128277e-17
310.60000,1.3949078e-16,6.6128277e-17
310.70000,1.4713325e-16,6.6128277e-17
310.80000,1.5274404e-16,6.6128277e-17
310.90000,1.5635970e-16,6.6128277e-17
311.00000,1.5823717e-16,6.6128277e-17
311.10000,1.5879711e-16,6.6128277e-17
311.20000,1.5853890e-16,6.6128277e-17
311.30000,1.5794754e-16,6.6128277e-17
311.40000,1.5741576e-16,6.6128277e-17
311.50000,1.5720007e-16,6.6128277e-17
311.60000,1.5741796e-16,6.6128277e-17
311.70000,1.5807905e-16,6.6128277e-17
311.80000,1.5913104e-16,6.6128277e-17
311.90000,1.6049621e-16,6.6128277e-17
312.00000,1.6208030e-16,6.6128277e-17
312.10000,1.6375010e-16,6.6128277e-17
312.20000,1.6529622e-16,6.6128277e-17
312.30000,1.6641272e-16,6.6128277e-17
312.40000,1.6672607e-16,6.6128277e-17
312.50000,1.6588818e-16,6.6128277e-17
312.60000,1.6371544e-16,6.6128277e-17
312.70000,1.6032316e-16,6.6128277e-17
312.80000,1.5618978e-16,6.6128277e-17
312.90000,1.5210096e-16,6.6128277e-17
313.00000,1.4896680e-16,6.6128277e-17
313.10000,1.4756049e-16,6.6128277e-17
313.20000,1.4826685e-16,6.6128277e-17
313.30000,1.5093577e-16,6.6128277e-17
313.40000,1.5490155e-16,6.6128277e-17
313.50000,1.5916984e-16,6.6128277e-17
313.60000,1.6271370e-16,6.6128277e-17
313.70000,1.6478331e-16,6.6128277e-17
313.80000,1.6513253e-16,6.6128277e-17
313.90000,1.6409565e-16,6.6128277e-17
314.00000,1.6249516e-16,6.6128277e-17
314.10000,1.6140966e-16,6.6128277e-17
314.20000,1.6186745e-16,6.6128277e-17
314.30000,1.6454949e-16,6.6128277e-17
314.40000,1.6958242e-16,6.6128277e-17
314.50000,1.7647850e-16,6.6128277e-17
314.60000,1.8423917e-16,6.6128277e-17
314.70000,1.9159186e-16,6.6128277e-17
314.80000,1.9729106e-16,6.6128277e-17
314.90000,2.0039764e-16,6.6128277e-17
315.00000,2.0046234e-16,6.6128277e-17
315.10000,1.9757494e-16,6.6128277e-17
315.20000,1.9228449e-16,6.6128277e-17
315.30000,1.8543185e-16,6.6128277e-17
315.40000,1.7795211e-16,6.6128277e-17
315.50000,1.7070006e-16,6.6128277e-17
315.60000,1.6433371e-16,6.6128277e-17
315.70000,1.5926788e-16,6.6128277e-17
315.80000,1.5569046e-16,6.6128277e-17
315.90000,1.5362122e-16,6.6128277e-17
316.00000,1.5298776e-16,6.6128277e-17
316.10000,1.5369416e-16,6.6128277e-17
316.20000,1.5566266e-16,6.6128277e-17
316.30000,1.5883774e-16,6.6128277e-17
316.40000,1.6315306e-16,6.6128277e-17
316.50000,1.6847427e-16,6.6128277e-17
316.60000,1.7454040e-16,6.6128277e-17
316.70000,1.8092981e-16,6.6128277e-17
316.80000,1.8707022e-16,6.6128277e-17
316.90000,1.9229820e-16,6.6128277e-17
317.00000,1.9595621e-16,6.6128277e-17
317.10000,1.9750308e-16,6.6128277e-17
317.20000,1.9660942e-16,6.6128277e-17
317.30000,1.9321503e-16,6.6128277e-17
317.40000,1.8753708e-16,6.6128277e-17
317.50000,1.8003200e-16,6.6128277e-17
317.60000,1.7132495e-16,6.6128277e-17
317.70000,1.6212567e-16,6.6128277e-17
317.80000,1.5314629e-16,6.6128277e-17
317.90000,1.4502738e-16,6.6128277e-17
318.00000,1.3827092e-16,6.6128277e-17
318.10000,1.3317805e-16,6.6128277e-17
318.20000,1.2979885e-16,6.6128277e-17
318.30000,1.2791379e-16,6.6128277e-17
318.40000,1.2707054e-16,6.6128277e-17
318.50000,1.2668636e-16,6.6128277e-17
318.60000,1.2619879e-16,6.6128277e-17
318.70000,1.2522015e-16,6.6128277e-17
318.80000,1.2364153e-16,6.6128277e-17
318.90000,1.2164984e-16,6.6128277e-17
319.00000,1.1965704e-16,6.6128277e-17
319.10000,1.1817638e-16,6.6128277e-17
319.20000,1.1769553e-16,6.6128277e-17
319.30000,1.1858582e-16,6.6128277e-17
319.40000,1.2105907e-16,6.6128277e-17
319.50000,1.2515838e-16,6.6128277e-17
319.60000,1.3075984e-16,6.6128277e-17
319.70000,1.3757215e-16,6.6128277e-17
319.80000,1.4513882e-16,6.6128277e-17
319.90000,1.5285999e-16,6.6128277e-17
320.00000,1.6004773e-16,6.6128277e-17
320.10000,1.6601390e-16,6.6128277e-17
320.20000,1.7017268e-16,6.6128277e-17
320.30000,1.7213289e-16,6.6128277e-17
320.40000,1.7175957e-16,6.6128277e-17
320.50000,1.6919625e-16,6.6128277e-17
320.60000,1.6484770e-16,6.6128277e-17
320.70000,1.5932623e-16,6.6128277e-17
320.80000,1.5336397e-16,6.6128277e-17
320.90000,1.4769683e-16,6.6128277e-17
321.00000,1.4293599e-16,6.6128277e-17
321.10000,1.3945433e-16,6.6128277e-17
321.20000,1.3732059e-16,6.6128277e-17
321.30000,1.3630499e-16,6.6128277e-17
321.40000,1.3595842e-16,6.6128277e-17
321.50000,1.3574211e-16,6.6128277e-17
321.60000,1.3516740e-16,6.6128277e-17
321.70000,1.3390465e-16,6.6128277e-17
321.80000,1.3183569e-16,6.6128277e-17
321.90000,1.2904655e-16,6.6128277e-17
322.00000,1.2577604e-16,6.6128277e-17
322.10000,1.2234291e-16,6.6128277e-17
322.20000,1.1907141e-16,6.6128277e-17
322.30000,1.1622787e-16,6.6128277e-17
322.40000,1.1397730e-16,6.6128277e-17
322.50000,1.1236819e-16,6.6128277e-17
322.60000,1.1135254e-16,6.6128277e-17
322.70000,1.1083901e-16,6.6128277e-17
322.80000,1.1076264e-16,6.6128277e-17
322.90000,1.1114103e-16,6.6128277e-17
323.00000,1.1208620e-16,6.6128277e-17
323.10000,1.1375782e-16,6.6128277e-17
323.20000,1.1627178e-16,6.6128277e-17
323.30000,1.1960332e-16,6.6128277e-17
323.40000,1.2353183e-16,6.6128277e-17
323.50000,1.2765900e-16,6.6128277e-17
323.60000,1.3150023e-16,6.6128277e-17
323.70000,1.3461813e-16,6.6128277e-17
323.80000,1.3675043e-16,6.6128277e-17
323.90000,1.3789109e-16,6.6128277e-17
324.00000,1.3830477e-16,6.6128277e-17
324.10000,1.3847988e-16,6.6128277e-17
324.20000,1.3904108e-16,6.6128277e-17
324.30000,1.4064599e-16,6.6128277e-17
324.40000,1.4388558e-16,6.6128277e-17
324.50000,1.4920165e-16,6.6128277e-17
324.60000,1.5683001e-16,6.6128277e-17
324.70000,1.6677417e-16,6.6128277e-17
324.80000,1.7880771e-16,6.6128277e-17
324.90000,1.9249650e-16,6.6128277e-17
325.00000,2.0723624e-16,6.6128277e-17
325.10000,2.2229129e-16,6.6128277e-17
325.20000,2.3684206e-16,6.6128277e-17
325.30000,2.5004936e-16,6.6128277e-17
325.40000,2.6114155e-16,6.6128277e-17
325.50000,2.6951800e-16,6.6128277e-17
325.60000,2.7484675e-16,6.6128277e-17
325.70000,2.7712579e-16,6.6128277e-17
325.80000,2.7668149e-16,6.6128277e-17
325.90000,2.7409401e-16,6.6128277e-17
326.00000,2.7006279e-16,6.6128277e-17
326.10000,2.6524781e-16,6.6128277e-17
326.20000,2.6013690e-16,6.6128277e-17
326.30000,2.5498760e-16,6.6128277e-17
326.40000,2.4986982e-16,6.6128277e-17
326.50000,2.4479546e-16,6.6128277e-17
326.60000,2.3987888e-16,6.6128277e-17
326.70000,2.3544883e-16,6.6128277e-17
326.80000,2.3204598e-16,6.6128277e-17
326.90000,2.3028969e-16,6.6128277e-17
327.00000,2.3066000e-16,6.6128277e-17
327.10000,2.3328557e-16,6.6128277e-17
327.20000,2.3782997e-16,6.6128277e-17
327.30000,2.4352746e-16,6.6128277e-17
327.40000,2.4935648e-16,6.6128277e-17
327.50000,2.5428595e-16,6.6128277e-17
327.60000,2.5750910e-16,6.6128277e-17
327.70000,2.5859646e-16,6.6128277e-17
327.80000,2.5753856e-16,6.6128277e-17
327.90000,2.5469020e-16,6.6128277e-17
328.00000,2.5065397e-16,6.6128277e-17
328.10000,2.4614711e-16,6.6128277e-17
328.20000,2.4188629e-16,6.6128277e-17
328.30000,2.3850779e-16,6.6128277e-17
328.40000,2.3652326e-16,6.6128277e-17
328.50000,2.3629811e-16,6.6128277e-17
328.60000,2.3803465e-16,6.6128277e-17
328.70000,2.4174662e-16,6.6128277e-17
328.80000,2.4722636e-16,6.6128277e-17
328.90000,2.5402206e-16,6.6128277e-17
329.00000,2.6145201e-16,6.6128277e-17
329.10000,2.6867456e-16,6.6128277e-17
329.20000,2.7480916e-16,6.6128277e-17
329.30000,2.7907726e-16,6.6128277e-17
329.40000,2.8092040e-16,6.6128277e-17
329.50000,2.8006400e-16,6.6128277e-17
329.60000,2.7652335e-16,6.6128277e-17
329.70000,2.7057265e-16,6.6128277e-17
329.80000,2.6270450e-16,6.6128277e-17
329.90000,2.5359311e-16,6.6128277e-17
330.00000,2.4405368e-16,6.6128277e-17
330.10000,2.3497864e-16,6.6128277e-17
330.20000,2.2723656e-16,6.6128277e-17
330.30000,2.2153725e-16,6.6128277e-17
330.40000,2.1828805e-16,6.6128277e-17
330.50000,2.1748035e-16,6.6128277e-17
330.60000,2.1864883e-16,6.6128277e-17
330.70000,2.2093463e-16,6.6128277e-17
330.80000,2.2325733e-16,6.6128277e-17
330.90000,2.2456398e-16,6.6128277e-17
331.00000,2.2408822e-16,6.6128277e-17
331.10000,2.2153767e-16,6.6128277e-17
331.20000,2.1714634e-16,6.6128277e-17
331.30000,2.1157878e-16,6.6128277e-17
331.40000,2.0573112e-16,6.6128277e-17
331.50000,2.0051022e-16,6.6128277e-17
331.60000,1.9666711e-16,6.6128277e-17
331.70000,1.9471902e-16,6.6128277e-17
331.80000,1.9494265e-16,6.6128277e-17
331.90000,1.9739265e-16,6.6128277e-17
332.00000,2.0190670e-16,6.6128277e-17
332.10000,2.0809411e-16,6.6128277e-17
332.20000,2.1533879e-16,6.6128277e-17
332.30000,2.2285580e-16,6.6128277e-17
332.40000,2.2981531e-16,6.6128277e-17
332.50000,2.3550657e-16,6.6128277e-17
332.60000,2.3948364e-16,6.6128277e-17
332.70000,2.4163549e-16,6.6128277e-17
332.80000,2.4215466e-16,6.6128277e-17
332.90000,2.4142214e-16,6.6128277e-17
333.00000,2.3985745e-16,6.6128277e-17
333.10000,2.3778829e-16,6.6128277e-17
333.20000,2.3537669e-16,6.6128277e-17
333.30000,2.3261250e-16,6.6128277e-17
333.40000,2.2936306e-16,6.6128277e-17
333.50000,2.2545489e-16,6.6128277e-17
333.60000,2.2075879e-16,6.6128277e-17
333.70000,2.1525159e-16,6.6128277e-17
333.80000,2.0903704e-16,6.6128277e-17
333.90000,2.0232557e-16,6.6128277e-17
334.00000,1.9539106e-16,6.6128277e-17
334.10000,1.8853192e-16,6.6128277e-17
334.20000,1.8205477e-16,6.6128277e-17
334.30000,1.7627544e-16,6.6128277e-17
334.40000,1.7150968e-16,6.6128277e-17
334.50000,1.6802363e-16,6.6128277e-17
334.60000,1.6593873e-16,6.6128277e-17
334.70000,1.6512364e-16,6.6128277e-17
334.80000,1.6513311e-16,6.6128277e-17
334.90000,1.6524877e-16,6.6128277e-17
335.00000,1.6463841e-16,6.6128277e-17
335.10000,1.6259642e-16,6.6128277e-17
335.20000,1.5878511e-16,6.6128277e-17
335.30000,1.5338548e-16,6.6128277e-17
335.40000,1.4709114e-16,6.6128277e-17
335.50000,1.4093064e-16,6.6128277e-17
335.60000,1.3596385e-16,6.6128277e-17
335.70000,1.3294665e-16,6.6128277e-17
335.80000,1.3207747e-16,6.6128277e-17
335.90000,1.3291806e-16,6.6128277e-17
336.00000,1.3452348e-16,6.6128277e-17
336.10000,1.3574073e-16,6.6128277e-17
336.20000,1.3557378e-16,6.6128277e-17
336.30000,1.3348975e-16,6.6128277e-17
336.40000,1.2956684e-16,6.6128277e-17
336.50000,1.2444577e-16,6.6128277e-17
336.60000,1.1911572e-16,6.6128277e-17
336.70000,1.1461645e-16,6.6128277e-17
336.80000,1.1175533e-16,6.6128277e-17
336.90000,1.1092199e-16,6.6128277e-17
337.00000,1.1204401e-16,6.6128277e-17
337.10000,1.1468036e-16,6.6128277e-17
337.20000,1.1820759e-16,6.6128277e-17
337.30000,1.2202996e-16,6.6128277e-17
337.40000,1.2574365e-16,6.6128277e-17
337.50000,1.2920761e-16,6.6128277e-17
337.60000,1.3251030e-16,6.6128277e-17
337.70000,1.3585926e-16,6.6128277e-17
337.80000,1.3944423e-16,6.6128277e-17
337.90000,1.4332557e-16,6.6128277e-17
338.00000,1.4738177e-16,6.6128277e-17
338.10000,1.5132370e-16,6.6128277e-17
338.20000,1.5476339e-16,6.6128277e-17
338.30000,1.5731670e-16,6.6128277e-17
338.40000,1.5872014e-16,6.6128277e-17
338.50000,1.5894063e-16,6.6128277e-17
338.60000,1.5825096e-16,6.6128277e-17
338.70000,1.5723816e-16,6.6128277e-17
338.80000,1.5671918e-16,6.6128277e-17
338.90000,1.5756506e-16,6.6128277e-17
339.00000,1.6047319e-16,6.6128277e-17
339.10000,1.6575705e-16,6.6128277e-17
339.20000,1.7322567e-16,6.6128277e-17
339.30000,1.8219621e-16,6.6128277e-17
339.40000,1.9163594e-16,6.6128277e-17
339.50000,2.0038709e-16,6.6128277e-17
339.60000,2.0740655e-16,6.6128277e-17
339.70000,2.1195715e-16,6.6128277e-17
339.80000,2.1371041e-16,6.6128277e-17
339.90000,2.1274872e-16,6.6128277e-17
340.00000,2.0947991e-16,6.6128277e-17
340.10000,2.0449435e-16,6.6128277e-17
340.20000,1.9840479e-16,6.6128277e-17
340.30000,1.9171243e-16,6.6128277e-17
340.40000,1.8473617e-16,6.6128277e-17
340.50000,1.7762541e-16,6.6128277e-17
340.60000,1.7044945e-16,6.6128277e-17
340.70000,1.6332698e-16,6.6128277e-17
340.80000,1.5653864e-16,6.6128277e-17
340.90000,1.5056523e-16,6.6128277e-17
341.00000,1.4601941e-16,6.6128277e-17
341.10000,1.4348108e-16,6.6128277e-17
341.20000,1.4329178e-16,6.6128277e-17
341.30000,1.4538868e-16,6.6128277e-17
341.40000,1.4925334e-16,6.6128277e-17
341.50000,1.5401082e-16,6.6128277e-17
341.60000,1.5865728e-16,6.6128277e-17
341.70000,1.6234116e-16,6.6128277e-17
341.80000,1.6459703e-16,6.6128277e-17
341.90000,1.6544576e-16,6.6128277e-17
342.00000,1.6532365e-16,6.6128277e-17
342.10000,1.6486886e-16,6.6128277e-17
342.20000,1.6464716e-16,6.6128277e-17
342.30000,1.6492039e-16,6.6128277e-17
342.40000,1.6554092e-16,6.6128277e-17
342.50000,1.6600399e-16,6.6128277e-17
342.60000,1.6562818e-16,6.6128277e-17
342.70000,1.6378806e-16,6.6128277e-17
342.80000,1.6010969e-16,6.6128277e-17
342.90000,1.5456356e-16,6.6128277e-17
343.00000,1.4743827e-16,6.6128277e-17
343.10000,1.3922815e-16,6.6128277e-17
343.20000,1.3049712e-16,6.6128277e-17
343.30000,1.2177663e-16,6.6128277e-17
343.40000,1.1352552e-16,6.6128277e-17
343.50000,1.0614150e-16,6.6128277e-17
343.60000,9.9990417e-17,6.6128277e-17
343.70000,9.5418367e-17,6.6128277e-17
343.80000,9.2730046e-17,6.6128277e-17
343.90000,9.2139817e-17,6.6128277e-17
344.00000,9.3717253e-17,6.6128277e-17
344.10000,9.7350972e-17,6.6128277e-17
344.20000,1.0274642e-16,6.6128277e-17
344.30000,1.0946095e-16,6.6128277e-17
344.40000,1.1696799e-16,6.6128277e-17
344.50000,1.2473340e-16,6.6128277e-17
344.60000,1.3228217e-16,6.6128277e-17
344.70000,1.3923557e-16,6.6128277e-17
344.80000,1.4530927e-16,6.6128277e-17
344.90000,1.5028042e-16,6.6128277e-17
345.00000,1.5394903e-16,6.6128277e-17
345.10000,1.5612459e-16,6.6128277e-17
345.20000,1.5665621e-16,6.6128277e-17
345.30000,1.5549873e-16,6.6128277e-17
345.40000,1.5278185e-16,6.6128277e-17
345.50000,1.4884229e-16,6.6128277e-17
345.60000,1.4419513e-16,6.6128277e-17
345.70000,1.3945055e-16,6.6128277e-17
345.80000,1.3520759e-16,6.6128277e-17
345.90000,1.3196093e-16,6.6128277e-17
346.00000,1.3004130e-16,6.6128277e-17
346.10000,1.2958666e-16,6.6128277e-17
346.20000,1.3052958e-16,6.6128277e-17
346.30000,1.3259346e-16,6.6128277e-17
346.40000,1.3530978e-16,6.6128277e-17
346.50000,1.3808189e-16,6.6128277e-17
346.60000,1.4031228e-16,6.6128277e-17
346.70000,1.4157861e-16,6.6128277e-17
346.80000,1.4180538e-16,6.6128277e-17
346.90000,1.4135721e-16,6.6128277e-17
347.00000,1.4099429e-16,6.6128277e-17
347.10000,1.4167894e-16,6.6128277e-17
347.20000,1.4428373e-16,6.6128277e-17
347.30000,1.4929841e-16,6.6128277e-17
347.40000,1.5664020e-16,6.6128277e-17
347.50000,1.6563708e-16,6.6128277e-17
347.60000,1.7518876e-16,6.6128277e-17
347.70000,1.8404388e-16,6.6128277e-17
347.80000,1.9109286e-16,6.6128277e-17
347.90000,1.9557993e-16,6.6128277e-17
348.00000,1.9718226e-16,6.6128277e-17
348.10000,1.9596591e-16,6.6128277e-17
348.20000,1.9227669e-16,6.6128277e-17
348.30000,1.8663446e-16,6.6128277e-17
348.40000,1.7967213e-16,6.6128277e-17
348.50000,1.7211391e-16,6.6128277e-17
348.60000,1.6475376e-16,6.6128277e-17
348.70000,1.5839512e-16,6.6128277e-17
348.80000,1.5374446e-16,6.6128277e-17
348.90000,1.5129259e-16,6.6128277e-17
349.00000,1.5123795e-16,6.6128277e-17
349.10000,1.5349259e-16,6.6128277e-17
349.20000,1.5776945e-16,6.6128277e-17
349.30000,1.6370716e-16,6.6128277e-17
349.40000,1.7096929e-16,6.6128277e-17
349.50000,1.7927144e-16,6.6128277e-17
349.60000,1.8833007e-16,6.6128277e-17
349.70000,1.9776942e-16,6.6128277e-17
349.80000,2.0704496e-16,6.6128277e-17
349.90000,2.1543483e-16,6.6128277e-17
350.00000,2.2879310e-16,6.6128277e-17
350.10000,2.5890148e-16,3.1946393e-17
350.20000,2.1618791e-16,1.7871281e-17
350.30000,2.3478585e-16,3.2690480e-17
350.40000,2.2624786e-16,3.6379695e-17
350.50000,2.1911804e-16,3.1856254e-17
350.60000,2.1669649e-16,2.3352649e-17
350.70000,2.2643692e-16,3.0881451e-17
350.80000,2.4214670e-16,4.0979342e-17
350.90000,2.5557061e-16,5.3840194e-17
351.00000,2.4862349e-16,6.7678895e-17
351.10000,2.3804340e-16,6.6272692e-17
351.20000,2.2403180e-16,5.0587547e-17
351.30000,2.1092937e-16,3.6453273e-17
351.40000,1.9954811e-16,2.0394868e-17
351.50000,1.9443807e-16,1.8503351e-17
351.60000,1.9080254e-16,1.9426733e-17
351.70000,1.8724583e-16,2.3157846e-17
351.80000,1.9145005e-16,2.9050079e-17
351.90000,1.9985519e-16,3.4373038e-17
352.00000,2.0912928e-16,3.6746312e-17
352.10000,2.1769220e-16,3.6260124e-17
352.20000,2.2555199e-16,3.1891689e-17
352.30000,2.3100668e-16,3.0866795e-17
352.40000,2.3307616e-16,1.7594591e-17
