wave,flux,fluxerr
300.00000,8.8793456e-16,2.1893761e-17
300.10000,8.7061947e-16,2.1893761e-17
300.20000,8.4419686e-16,2.1893761e-17
300.30000,8.1250616e-16,2.1893761e-17
300.40000,7.8006157e-16,2.1893761e-17
300.50000,7.5123463e-16,2.1893761e-17
300.60000,7.2954230e-16,2.1893761e-17
300.70000,7.1719368e-16,2.1893761e-17
300.80000,7.1493613e-16,2.1893761e-17
300.90000,7.2213743e-16,2.1893761e-17
301.00000,7.3699583e-16,2.1893761e-17
301.10000,7.5679930e-16,2.1893761e-17
301.20000,7.7822478e-16,2.1893761e-17
301.30000,7.9771942e-16,2.1893761e-17
301.40000,8.1199833e-16,2.1893761e-17
301.50000,8.1862717e-16,2.1893761e-17
301.60000,8.1657222e-16,2.1893761e-17
301.70000,8.0654454e-16,2.1893761e-17
301.80000,7.9097596e-16,2.1893761e-17
301.90000,7.7355071e-16,2.1893761e-17
302.00000,7.5835702e-16,2.1893761e-17
302.10000,7.4887186e-16,2.1893761e-17
302.20000,7.4708644e-16,2.1893761e-17
302.30000,7.5306713e-16,2.1893761e-17
302.40000,7.6511074e-16,2.1893761e-17
302.50000,7.8043956e-16,2.1893761e-17
302.60000,7.9617926e-16,2.1893761e-17
302.70000,8.1026572e-16,2.1893761e-17
302.80000,8.2197652e-16,2.1893761e-17
302.90000,8.3194866e-16,2.1893761e-17
303.00000,8.4174117e-16,2.1893761e-17
303.10000,8.5314436e-16,2.1893761e-17
303.20000,8.6748268e-16,2.1893761e-17
303.30000,8.8511752e-16,2.1893761e-17
303.40000,9.0526727e-16,2.1893761e-17
303.50000,9.2616404e-16,2.1893761e-17
303.60000,9.4548004e-16,2.1893761e-17
303.70000,9.6089418e-16,2.1893761e-17
303.80000,9.7064099e-16,2.1893761e-17
303.90000,9.7389903e-16,2.1893761e-17
304.00000,9.7093108e-16,2.1893761e-17
304.10000,9.6296613e-16,2.1893761e-17
304.20000,9.5188614e-16,2.1893761e-17
304.30000,9.3982478e-16,2.1893761e-17
304.40000,9.2879214e-16,2.1893761e-17
304.50000,9.2040996e-16,2.1893761e-17
304.60000,9.1578827e-16,2.1893761e-17
304.70000,9.1551617e-16,2.1893761e-17
304.80000,9.1969796e-16,2.1893761e-17
304.90000,9.2796332e-16,2.1893761e-17
305.00000,9.3942143e-16,2.1893761e-17
305.10000,9.5259704e-16,2.1893761e-17
305.20000,9.6544472e-16,2.1893761e-17
305.30000,9.7554594e-16,2.1893761e-17
305.40000,9.8053453e-16,2.1893761e-17
305.50000,9.7868489e-16,2.1893761e-17
305.60000,9.6948429e-16,2.1893761e-17
305.70000,9.5395774e-16,2.1893761e-17
305.80000,9.3456432e-16,2.1893761e-17
305.90000,9.1463547e-16,2.1893761e-17
306.00000,8.9751813e-16,2.1893761e-17
306.10000,8.8572590e-16,2.1893761e-17
306.20000,8.8041023e-16,2.1893761e-17
306.30000,8.8132420e-16,2.1893761e-17
306.40000,8.8723067e-16,2.1893761e-17
306.50000,8.9651842e-16,2.1893761e-17
306.60000,9.0773333e-16,2.1893761e-17
306.70000,9.1982791e-16,2.1893761e-17
306.80000,9.3211396e-16,2.1893761e-17
306.90000,9.4405819e-16,2.1893761e-17
307.00000,9.5510441e-16,2.1893761e-17
307.10000,9.6463162e-16,2.1893761e-17
307.20000,9.7203383e-16,2.1893761e-17
307.30000,9.7682517e-16,2.1893761e-17
307.40000,9.7868357e-16,2.1893761e-17
307.50000,9.7742572e-16,2.1893761e-17
307.60000,9.7298384e-16,2.1893761e-17
307.70000,9.6546359e-16,2.1893761e-17
307.80000,9.5529266e-16,2.1893761e-17
307.90000,9.4337007e-16,2.1893761e-17
308.00000,9.3107378e-16,2.1893761e-17
308.10000,9.2002393e-16,2.1893761e-17
308.20000,9.1162013e-16,2.1893761e-17
308.30000,9.0650839e-16,2.1893761e-17
308.40000,9.0421052e-16,2.1893761e-17
308.50000,9.0311718e-16,2.1893761e-17
308.60000,9.0091072e-16,2.1893761e-17
308.70000,8.9530329e-16,2.1893761e-17
308.80000,8.8482909e-16,2.1893761e-17
308.90000,8.6938826e-16,2.1893761e-17
309.00000,8.5032623e-16,2.1893761e-17
309.10000,8.3001376e-16,2.1893761e-17
309.20000,8.1109297e-16,2.1893761e-17
309.30000,7.9568664e-16,2.1893761e-17
309.40000,7.8487512e-16,2.1893761e-17
309.50000,7.7862244e-16,2.1893761e-17
309.60000,7.7613448e-16,2.1893761e-17
309.70000,7.7644689e-16,2.1893761e-17
309.80000,7.7895544e-16,2.1893761e-17
309.90000,7.8365632e-16,2.1893761e-17
310.00000,7.9102754e-16,2.1893761e-17
310.10000,8.0166398e-16,2.1893761e-17
310.20000,8.1588158e-16,2.1893761e-17
310.30000,8.3348140e-16,2.1893761e-17
310.40000,8.5374134e-16,2.1893761e-17
310.50000,8.7556917e-16,2.1893761e-17
310.60000,8.9768625e-16,2.1893761e-17
310.70000,9.1874685e-16,2.1893761e-17
310.80000,9.3739025e-16,2.1893761e-17
310.90000,9.5229809e-16,2.1893761e-17
311.00000,9.6233162e-16,2.1893761e-17
311.10000,9.6675429e-16,2.1893761e-17
311.20000,9.6545605e-16,2.1893761e-17
311.30000,9.5905186e-16,2.1893761e-17
311.40000,9.4876266e-16,2.1893761e-17
311.50000,9.3608997e-16,2.1893761e-17
311.60000,9.2240973e-16,2.1893761e-17
311.70000,9.0867401e-16,2.1893761e-17
311.80000,8.9537642e-16,2.1893761e-17
311.90000,8.8281232e-16,2.1893761e-17
312.00000,8.7150292e-16,2.1893761e-17
312.10000,8.6253703e-16,2.1893761e-17
312.20000,8.5758879e-16,2.1893761e-17
312.30000,8.5850936e-16,2.1893761e-17
312.40000,8.6660701e-16,2.1893761e-17
312.50000,8.8191423e-16,2.1893761e-17
312.60000,9.0279246e-16,2.1893761e-17
312.70000,9.2610876e-16,2.1893761e-17
312.80000,9.4798563e-16,2.1893761e-17
312.90000,9.6488226e-16,2.1893761e-17
313.00000,9.7462236e-16,2.1893761e-17
313.10000,9.7699790e-16,2.1893761e-17
313.20000,9.7373676e-16,2.1893761e-17
313.30000,9.6785600e-16,2.1893761e-17
313.40000,9.6263701e-16,2.1893761e-17
313.50000,9.6057703e-16,2.1893761e-17
313.60000,9.6265442e-16,2.1893761e-17
313.70000,9.6811082e-16,2.1893761e-17
313.80000,9.7476338e-16,2.1893761e-17
313.90000,9.7969505e-16,2.1893761e-17
314.00000,9.8008929e-16,2.1893761e-17
314.10000,9.7398843e-16,2.1893761e-17
314.20000,9.6082636e-16,2.1893761e-17
314.30000,9.4166249e-16,2.1893761e-17
314.40000,9.1909373e-16,2.1893761e-17
314.50000,8.9684860e-16,2.1893761e-17
314.60000,8.7910195e-16,2.1893761e-17
314.70000,8.6961047e-16,2.1893761e-17
314.80000,8.7084423e-16,2.1893761e-17
314.90000,8.8333821e-16,2.1893761e-17
315.00000,9.0546689e-16,2.1893761e-17
315.10000,9.3374124e-16,2.1893761e-17
315.20000,9.6356994e-16,2.1893761e-17
315.30000,9.9027410e-16,2.1893761e-17
315.40000,1.0100615e-15,2.1893761e-17
315.50000,1.0206879e-15,2.1893761e-17
315.60000,1.0216522e-15,2.1893761e-17
315.70000,1.0139397e-15,2.1893761e-17
315.80000,9.9947323e-16,2.1893761e-17
315.90000,9.8050586e-16,2.1893761e-17
316.00000,9.5916116e-16,2.1893761e-17
316.10000,9.3722547e-16,2.1893761e-17
316.20000,9.1616979e-16,2.1893761e-17
316.30000,8.9728386e-16,2.1893761e-17
316.40000,8.8178407e-16,2.1893761e-17
316.50000,8.7080962e-16,2.1893761e-17
316.60000,8.6530969e-16,2.1893761e-17
316.70000,8.6589286e-16,2.1893761e-17
316.80000,8.7271935e-16,2.1893761e-17
316.90000,8.8547356e-16,2.1893761e-17
317.00000,9.0339615e-16,2.1893761e-17
317.10000,9.2532947e-16,2.1893761e-17
317.20000,9.4974920e-16,2.1893761e-17
317.30000,9.7480003e-16,2.1893761e-17
317.40000,9.9838409e-16,2.1893761e-17
317.50000,1.0183438e-15,2.1893761e-17
317.60000,1.0327384e-15,2.1893761e-17
317.70000,1.0401610e-15,2.1893761e-17
317.80000,1.0400091e-15,2.1893761e-17
317.90000,1.0326217e-15,2.1893761e-17
318.00000,1.0192360e-15,2.1893761e-17
318.10000,1.0017632e-15,2.1893761e-17
318.20000,9.8243918e-16,2.1893761e-17
318.30000,9.6342824e-16,2.1893761e-17
318.40000,9.4646942e-16,2.1893761e-17
318.50000,9.3263530e-16,2.1893761e-17
318.60000,9.2224397e-16,2.1893761e-17
318.70000,9.1492284e-16,2.1893761e-17
318.80000,9.0978457e-16,2.1893761e-17
318.90000,9.0565739e-16,2.1893761e-17
319.00000,9.0132583e-16,2.1893761e-17
319.10000,8.9577247e-16,2.1893761e-17
319.20000,8.8843341e-16,2.1893761e-17
319.30000,8.7945940e-16,2.1893761e-17
319.40000,8.6991260e-16,2.1893761e-17
319.50000,8.6177277e-16,2.1893761e-17
319.60000,8.5763801e-16,2.1893761e-17
319.70000,8.6011055e-16,2.1893761e-17
319.80000,8.7101703e-16,2.1893761e-17
319.90000,8.9073346e-16,2.1893761e-17
320.00000,9.1788540e-16,2.1893761e-17
320.10000,9.4955765e-16,2.1893761e-17
320.20000,9.8194507e-16,2.1893761e-17
320.30000,1.0112127e-15,2.1893761e-17
320.40000,1.0342868e-15,2.1893761e-17
320.50000,1.0493704e-15,2.1893761e-17
320.60000,1.0561059e-15,2.1893761e-17
320.70000,1.0554214e-15,2.1893761e-17
320.80000,1.0491569e-15,2.1893761e-17
320.90000,1.0395822e-15,2.1893761e-17
321.00000,1.0289150e-15,2.1893761e-17
321.10000,1.0189351e-15,2.1893761e-17
321.20000,1.0107678e-15,2.1893761e-17
321.30000,1.0048642e-15,2.1893761e-17
321.40000,1.0011456e-15,2.1893761e-17
321.50000,9.9923139e-16,2.1893761e-17
321.60000,9.9865965e-16,2.1893761e-17
321.70000,9.9903120e-16,2.1893761e-17
321.80000,1.0000539e-15,2.1893761e-17
321.90000,1.0015001e-15,2.1893761e-17
322.00000,1.0031100e-15,2.1893761e-17
322.10000,1.0044798e-15,2.1893761e-17
322.20000,1.0049763e-15,2.1893761e-17
322.30000,1.0037265e-15,2.1893761e-17
322.40000,9.9972429e-16,2.1893761e-17
322.50000,9.9206391e-16,2.1893761e-17
322.60000,9.8024719e-16,2.1893761e-17
322.70000,9.6445210e-16,2.1893761e-17
322.80000,9.4563023e-16,2.1893761e-17
322.90000,9.2535885e-16,2.1893761e-17
323.00000,9.0548693e-16,2.1893761e-17
323.10000,8.8772280e-16,2.1893761e-17
323.20000,8.7334027e-16,2.1893761e-17
323.30000,8.6310555e-16,2.1893761e-17
323.40000,8.5739391e-16,2.1893761e-17
323.50000,8.5636209e-16,2.1893761e-17
323.60000,8.6003827e-16,2.1893761e-17
323.70000,8.6828167e-16,2.1893761e-17
323.80000,8.8067769e-16,2.1893761e-17
323.90000,8.9648681e-16,2.1893761e-17
324.00000,9.1472399e-16,2.1893761e-17
324.10000,9.3434758e-16,2.1893761e-17
324.20000,9.5446117e-16,2.1893761e-17
324.30000,9.7443133e-16,2.1893761e-17
324.40000,9.9389296e-16,2.1893761e-17
324.50000,1.0126912e-15,2.1893761e-17
324.60000,1.0308347e-15,2.1893761e-17
324.70000,1.0484921e-15,2.1893761e-17
324.80000,1.0659931e-15,2.1893761e-17
324.90000,1.0837618e-15,2.1893761e-17
325.00000,1.1021443e-15,2.1893761e-17
325.10000,1.1211711e-15,2.1893761e-17
325.20000,1.1403619e-15,2.1893761e-17
325.30000,1.1586808e-15,2.1893761e-17
325.40000,1.1746813e-15,2.1893761e-17
325.50000,1.1867999e-15,2.1893761e-17
325.60000,1.1936988e-15,2.1893761e-17
325.70000,1.1945595e-15,2.1893761e-17
325.80000,1.1892650e-15,2.1893761e-17
325.90000,1.1784508e-15,2.1893761e-17
326.00000,1.1634317e-15,2.1893761e-17
326.10000,1.1460259e-15,2.1893761e-17
326.20000,1.1283059e-15,2.1893761e-17
326.30000,1.1123127e-15,2.1893761e-17
326.40000,1.0997689e-15,2.1893761e-17
326.50000,1.0918266e-15,2.1893761e-17
326.60000,1.0888881e-15,2.1893761e-17
326.70000,1.0905456e-15,2.1893761e-17
326.80000,1.0956911e-15,2.1893761e-17
326.90000,1.1028204e-15,2.1893761e-17
327.00000,1.1104830e-15,2.1893761e-17
327.10000,1.1177458e-15,2.1893761e-17
327.20000,1.1244836e-15,2.1893761e-17
327.30000,1.1313520e-15,2.1893761e-17
327.40000,1.1394265e-15,2.1893761e-17
327.50000,1.1496522e-15,2.1893761e-17
327.60000,1.1623441e-15,2.1893761e-17
327.70000,1.1769552e-15,2.1893761e-17
327.80000,1.1921981e-15,2.1893761e-17
327.90000,1.2064376e-15,2.1893761e-17
328.00000,1.2181678e-15,2.1893761e-17
328.10000,1.2263780e-15,2.1893761e-17
328.20000,1.2306938e-15,2.1893761e-17
328.30000,1.2312915e-15,2.1893761e-17
328.40000,1.2286711e-15,2.1893761e-17
328.50000,1.2234092e-15,2.1893761e-17
328.60000,1.2159976e-15,2.1893761e-17
328.70000,1.2068203e-15,2.1893761e-17
328.80000,1.1962571e-15,2.1893761e-17
328.90000,1.1848416e-15,2.1893761e-17
329.00000,1.1733737e-15,2.1893761e-17
329.10000,1.1629004e-15,2.1893761e-17
329.20000,1.1545387e-15,2.1893761e-17
329.30000,1.1491916e-15,2.1893761e-17
329.40000,1.1472741e-15,2.1893761e-17
329.50000,1.1485713e-15,2.1893761e-17
329.60000,1.1523003e-15,2.1893761e-17
329.70000,1.1573513e-15,2.1893761e-17
329.80000,1.1625977e-15,2.1893761e-17
329.90000,1.1671428e-15,2.1893761e-17
330.00000,1.1704154e-15,2.1893761e-17
330.10000,1.1721220e-15,2.1893761e-17
330.20000,1.1721390e-15,2.1893761e-17
330.30000,1.1704475e-15,2.1893761e-17
330.40000,1.1671614e-15,2.1893761e-17
330.50000,1.1626234e-15,2.1893761e-17
330.60000,1.1574825e-15,2.1893761e-17
330.70000,1.1526665e-15,2.1893761e-17
330.80000,1.1492105e-15,2.1893761e-17
330.90000,1.1479714e-15,2.1893761e-17
331.00000,1.1493204e-15,2.1893761e-17
331.10000,1.1529272e-15,2.1893761e-17
331.20000,1.1577306e-15,2.1893761e-17
331.30000,1.1621320e-15,2.1893761e-17
331.40000,1.1643694e-15,2.1893761e-17
331.50000,1.1629584e-15,2.1893761e-17
331.60000,1.1570553e-15,2.1893761e-17
331.70000,1.1466237e-15,2.1893761e-17
331.80000,1.1323708e-15,2.1893761e-17
331.90000,1.1155239e-15,2.1893761e-17
332.00000,1.0975812e-15,2.1893761e-17
332.10000,1.0801630e-15,2.1893761e-17
332.20000,1.0649936e-15,2.1893761e-17
332.30000,1.0539281e-15,2.1893761e-17
332.40000,1.0488759e-15,2.1893761e-17
332.50000,1.0515156e-15,2.1893761e-17
332.60000,1.0628381e-15,2.1893761e-17
332.70000,1.0826972e-15,2.1893761e-17
332.80000,1.1096004e-15,2.1893761e-17
332.90000,1.1408818e-15,2.1893761e-17
333.00000,1.1732236e-15,2.1893761e-17
333.10000,1.2033306e-15,2.1893761e-17
333.20000,1.2285086e-15,2.1893761e-17
333.30000,1.2469793e-15,2.1893761e-17
333.40000,1.2579083e-15,2.1893761e-17
333.50000,1.2612465e-15,2.1893761e-17
333.60000,1.2575256e-15,2.1893761e-17
333.70000,1.2477003e-15,2.1893761e-17
333.80000,1.2330499e-15,2.1893761e-17
333.90000,1.2150890e-15,2.1893761e-17
334.00000,1.1954261e-15,2.1893761e-17
334.10000,1.1755477e-15,2.1893761e-17
334.20000,1.1565616e-15,2.1893761e-17
334.30000,1.1389779e-15,2.1893761e-17
334.40000,1.1226182e-15,2.1893761e-17
334.50000,1.1067171e-15,2.1893761e-17
334.60000,1.0902269e-15,2.1893761e-17
334.70000,1.0722634e-15,2.1893761e-17
334.80000,1.0525641e-15,2.1893761e-17
334.90000,1.0317878e-15,2.1893761e-17
335.00000,1.0115009e-15,2.1893761e-17
335.10000,9.9378346e-16,2.1893761e-17
335.20000,9.8053788e-16,2.1893761e-17
335.30000,9.7273513e-16,2.1893761e-17
335.40000,9.6991392e-16,2.1893761e-17
335.50000,9.7019659e-16,2.1893761e-17
335.60000,9.7089886e-16,2.1893761e-17
335.70000,9.6955482e-16,2.1893761e-17
335.80000,9.6496598e-16,2.1893761e-17
335.90000,9.5782138e-16,2.1893761e-17
336.00000,9.5057334e-16,2.1893761e-17
336.10000,9.4654998e-16,2.1893761e-17
336.20000,9.4862105e-16,2.1893761e-17
336.30000,9.5795509e-16,2.1893761e-17
336.40000,9.7340032e-16,2.1893761e-17
336.50000,9.9177680e-16,2.1893761e-17
336.60000,1.0089851e-15,2.1893761e-17
336.70000,1.0214897e-15,2.1893761e-17
336.80000,1.0275810e-15,2.1893761e-17
336.90000,1.0279254e-15,2.1893761e-17
337.00000,1.0252190e-15,2.1893761e-17
337.10000,1.0231268e-15,2.1893761e-17
337.20000,1.0249514e-15,2.1893761e-17
337.30000,1.0325398e-15,2.1893761e-17
337.40000,1.0457949e-15,2.1893761e-17
337.50000,1.0628990e-15,2.1893761e-17
337.60000,1.0810899e-15,2.1893761e-17
337.70000,1.0976616e-15,2.1893761e-17
337.80000,1.1108241e-15,2.1893761e-17
337.90000,1.1201548e-15,2.1893761e-17
338.00000,1.1265342e-15,2.1893761e-17
338.10000,1.1316426e-15,2.1893761e-17
338.20000,1.1372293e-15,2.1893761e-17
338.30000,1.1444154e-15,2.1893761e-17
338.40000,1.1532539e-15,2.1893761e-17
338.50000,1.1626631e-15,2.1893761e-17
338.60000,1.1707224e-15,2.1893761e-17
338.70000,1.1752217e-15,2.1893761e-17
338.80000,1.1743113e-15,2.1893761e-17
338.90000,1.1670969e-15,2.1893761e-17
339.00000,1.1540406e-15,2.1893761e-17
339.10000,1.1370573e-15,2.1893761e-17
339.20000,1.1192363e-15,2.1893761e-17
339.30000,1.1042045e-15,2.1893761e-17
339.40000,1.0952625e-15,2.1893761e-17
339.50000,1.0945326e-15,2.1893761e-17
339.60000,1.1023971e-15,2.1893761e-17
339.70000,1.1174288e-15,2.1893761e-17
339.80000,1.1368479e-15,2.1893761e-17
339.90000,1.1573414e-15,2.1893761e-17
340.00000,1.1759533e-15,2.1893761e-17
340.10000,1.1907460e-15,2.1893761e-17
340.20000,1.2010468e-15,2.1893761e-17
340.30000,1.2072721e-15,2.1893761e-17
340.40000,1.2104802e-15,2.1893761e-17
340.50000,1.2118665e-15,2.1893761e-17
340.60000,1.2123855e-15,2.1893761e-17
340.70000,1.2125710e-15,2.1893761e-17
340.80000,1.2125212e-15,2.1893761e-17
340.90000,1.2119666e-15,2.1893761e-17
341.00000,1.2103577e-15,2.1893761e-17
341.10000,1.2069735e-15,2.1893761e-17
341.20000,1.2010901e-15,2.1893761e-17
341.30000,1.1922280e-15,2.1893761e-17
341.40000,1.1804280e-15,2.1893761e-17
341.50000,1.1664330e-15,2.1893761e-17
341.60000,1.1516494e-15,2.1893761e-17
341.70000,1.1378375e-15,2.1893761e-17
341.80000,1.1266110e-15,2.1893761e-17
341.90000,1.1189369e-15,2.1893761e-17
342.00000,1.1148530e-15,2.1893761e-17
342.10000,1.1135335e-15,2.1893761e-17
342.20000,1.1136783e-15,2.1893761e-17
342.30000,1.1140494e-15,2.1893761e-17
342.40000,1.1139144e-15,2.1893761e-17
342.50000,1.1132043e-15,2.1893761e-17
342.60000,1.1123403e-15,2.1893761e-17
342.70000,1.1118448e-15,2.1893761e-17
342.80000,1.1119554e-15,2.1893761e-17
342.90000,1.1124428e-15,2.1893761e-17
343.00000,1.1127177e-15,2.1893761e-17
343.10000,1.1121453e-15,2.1893761e-17
343.20000,1.1103679e-15,2.1893761e-17
343.30000,1.1074374e-15,2.1893761e-17
343.40000,1.1036718e-15,2.1893761e-17
343.50000,1.0993276e-15,2.1893761e-17
343.60000,1.0943101e-15,2.1893761e-17
343.70000,1.0881451e-15,2.1893761e-17
343.80000,1.0802993e-15,2.1893761e-17
343.90000,1.0707258e-15,2.1893761e-17
344.00000,1.0603548e-15,2.1893761e-17
344.10000,1.0512284e-15,2.1893761e-17
344.20000,1.0461306e-15,2.1893761e-17
344.30000,1.0477933e-15,2.1893761e-17
344.40000,1.0579689e-15,2.1893761e-17
344.50000,1.0767223e-15,2.1893761e-17
344.60000,1.1022083e-15,2.1893761e-17
344.70000,1.1310071e-15,2.1893761e-17
344.80000,1.1588923e-15,2.1893761e-17
344.90000,1.1817865e-15,2.1893761e-17
345.00000,1.1966365e-15,2.1893761e-17
345.10000,1.2019926e-15,2.1893761e-17
345.20000,1.1981706e-15,2.1893761e-17
345.30000,1.1869782e-15,2.1893761e-17
345.40000,1.1711032e-15,2.1893761e-17
345.50000,1.1533527e-15,2.1893761e-17
345.60000,1.1359889e-15,2.1893761e-17
345.70000,1.1203645e-15,2.1893761e-17
345.80000,1.1069370e-15,2.1893761e-17
345.90000,1.0955791e-15,2.1893761e-17
346.00000,1.0859815e-15,2.1893761e-17
346.10000,1.0779401e-15,2.1893761e-17
346.20000,1.0714216e-15,2.1893761e-17
346.30000,1.0664464e-15,2.1893761e-17
346.40000,1.0629245e-15,2.1893761e-17
346.50000,1.0605772e-15,2.1893761e-17
346.60000,1.0589917e-15,2.1893761e-17
346.70000,1.0577547e-15,2.1893761e-17
346.80000,1.0565691e-15,2.1893761e-17
346.90000,1.0552930e-15,2.1893761e-17
347.00000,1.0539208e-15,2.1893761e-17
347.10000,1.0525820e-15,2.1893761e-17
347.20000,1.0516151e-15,2.1893761e-17
347.30000,1.0516904e-15,2.1893761e-17
347.40000,1.0538748e-15,2.1893761e-17
347.50000,1.0595119e-15,2.1893761e-17
347.60000,1.0698766e-15,2.1893761e-17
347.70000,1.0856944e-15,2.1893761e-17
347.80000,1.1067249e-15,2.1893761e-17
347.90000,1.1316145e-15,2.1893761e-17
348.00000,1.1581159e-15,2.1893761e-17
348.10000,1.1836088e-15,2.1893761e-17
348.20000,1.2057163e-15,2.1893761e-17
348.30000,1.2227808e-15,2.1893761e-17
348.40000,1.2340424e-15,2.1893761e-17
348.50000,1.2395117e-15,2.1893761e-17
348.60000,1.2396694e-15,2.1893761e-17
348.70000,1.2351775e-15,2.1893761e-17
348.80000,1.2267399e-15,2.1893761e-17
348.90000,1.2151391e-15,2.1893761e-17
349.00000,1.2013697e-15,2.1893761e-17
349.10000,1.1867450e-15,2.1893761e-17
349.20000,1.1728823e-15,2.1893761e-17
349.30000,1.1615462e-15,2.1893761e-17
349.40000,1.1543979e-15,2.1893761e-17
349.50000,1.1527306e-15,2.1893761e-17
349.60000,1.1572561e-15,2.1893761e-17
349.70000,1.1679750e-15,2.1893761e-17
349.80000,1.1841334e-15,2.1893761e-17
349.90000,1.2042576e-15,2.1893761e-17
350.00000,1.2192269e-15,2.1893761e-17
350.10000,1.1997718e-15,1.3797380e-17
350.20000,1.1465932e-15,1.8661077e-17
350.30000,1.1515637e-15,3.9770538e-17
350.40000,1.1627826e-15,3.4101582e-17
350.50000,1.1727452e-15,2.9994717e-17
350.60000,1.1788035e-15,1.8432567e-17
350.70000,1.1902132e-15,1.6064596e-17
350.80000,1.1962044e-15,1.7661180e-17
350.90000,1.1938766e-15,2.9721938e-17
351.00000,1.1847964e-15,1.9679970e-17
351.10000,1.1849622e-15,1.3722284e-17
351.20000,1.1874999e-15,1.2438751e-17
351.30000,1.1793349e-15,2.1323380e-17
351.40000,1.1660021e-15,3.3520304e-17
351.50000,1.1517907e-15,4.2704192e-17
351.60000,1.1590721e-15,2.7810839e-17
351.70000,1.1728781e-15,1.9240351e-17
351.80000,1.1832357e-15,1.2660424e-17
351.90000,1.1819979e-15,1.0904100e-17
352.00000,1.1725741e-15,3.4554467e-17
352.10000,1.1595278e-15,3.0302557e-17
352.20000,1.1479573e-15,1.4237111e-17
352.30000,1.1437108e-15,1.7929082e-17
352.40000,1.1391841e-15,1.6140767e-17
