wave,flux,fluxerr
300.00000,1.7041996e-15,6.4129665e-17
300.10000,1.6870270e-15,6.4129665e-17
300.20000,1.6476284e-15,6.4129665e-17
300.30000,1.5915913e-15,6.4129665e-17
300.40000,1.5264882e-15,6.4129665e-17
300.50000,1.4606114e-15,6.4129665e-17
300.60000,1.4017151e-15,6.4129665e-17
300.70000,1.3560403e-15,6.4129665e-17
300.80000,1.3277459e-15,6.4129665e-17
300.90000,1.3186905e-15,6.4129665e-17
301.00000,1.3284142e-15,6.4129665e-17
301.10000,1.3542064e-15,6.4129665e-17
301.20000,1.3912801e-15,6.4129665e-17
301.30000,1.4331973e-15,6.4129665e-17
301.40000,1.4726914e-15,6.4129665e-17
301.50000,1.5028880e-15,6.4129665e-17
301.60000,1.5187108e-15,6.4129665e-17
301.70000,1.5180877e-15,6.4129665e-17
301.80000,1.5025474e-15,6.4129665e-17
301.90000,1.4769378e-15,6.4129665e-17
302.00000,1.4482547e-15,6.4129665e-17
302.10000,1.4238595e-15,6.4129665e-17
302.20000,1.4095838e-15,6.4129665e-17
302.30000,1.4082959e-15,6.4129665e-17
302.40000,1.4193858e-15,6.4129665e-17
302.50000,1.4393347e-15,6.4129665e-17
302.60000,1.4631578e-15,6.4129665e-17
302.70000,1.4862009e-15,6.4129665e-17
302.80000,1.5056514e-15,6.4129665e-17
302.90000,1.5212611e-15,6.4129665e-17
303.00000,1.5350966e-15,6.4129665e-17
303.10000,1.5504966e-15,6.4129665e-17
303.20000,1.5706613e-15,6.4129665e-17
303.30000,1.5973657e-15,6.4129665e-17
303.40000,1.6301806e-15,6.4129665e-17
303.50000,1.6663893e-15,6.4129665e-17
303.60000,1.7015768e-15,6.4129665e-17
303.70000,1.7306941e-15,6.4129665e-17
303.80000,1.7492927e-15,6.4129665e-17
303.90000,1.7545941e-15,6.4129665e-17
304.00000,1.7461263e-15,6.4129665e-17
304.10000,1.7257948e-15,6.4129665e-17
304.20000,1.6974265e-15,6.4129665e-17
304.30000,1.6659654e-15,6.4129665e-17
304.40000,1.6365596e-15,6.4129665e-17
304.50000,1.6137625e-15,6.4129665e-17
304.60000,1.6009800e-15,6.4129665e-17
304.70000,1.6001890e-15,6.4129665e-17
304.80000,1.6118610e-15,6.4129665e-17
304.90000,1.6349853e-15,6.4129665e-17
305.00000,1.6671167e-15,6.4129665e-17
305.10000,1.7044467e-15,6.4129665e-17
305.20000,1.7419941e-15,6.4129665e-17
305.30000,1.7740492e-15,6.4129665e-17
305.40000,1.7949594e-15,6.4129665e-17
305.50000,1.8002013e-15,6.4129665e-17
305.60000,1.7874976e-15,6.4129665e-17
305.70000,1.7576042e-15,6.4129665e-17
305.80000,1.7144053e-15,6.4129665e-17
305.90000,1.6641503e-15,6.4129665e-17
306.00000,1.6139886e-15,6.4129665e-17
306.10000,1.5702716e-15,6.4129665e-17
306.20000,1.5372167e-15,6.4129665e-17
306.30000,1.5163923e-15,6.4129665e-17
306.40000,1.5071180e-15,6.4129665e-17
306.50000,1.5074694e-15,6.4129665e-17
306.60000,1.5153457e-15,6.4129665e-17
306.70000,1.5291201e-15,6.4129665e-17
306.80000,1.5476951e-15,6.4129665e-17
306.90000,1.5701426e-15,6.4129665e-17
307.00000,1.5952954e-15,6.4129665e-17
307.10000,1.6215945e-15,6.4129665e-17
307.20000,1.6472531e-15,6.4129665e-17
307.30000,1.6705657e-15,6.4129665e-17
307.40000,1.6901309e-15,6.4129665e-17
307.50000,1.7048837e-15,6.4129665e-17
307.60000,1.7140290e-15,6.4129665e-17
307.70000,1.7170675e-15,6.4129665e-17
307.80000,1.7140262e-15,6.4129665e-17
307.90000,1.7058120e-15,6.4129665e-17
308.00000,1.6944344e-15,6.4129665e-17
308.10000,1.6828366e-15,6.4129665e-17
308.20000,1.6742363e-15,6.4129665e-17
308.30000,1.6711355e-15,6.4129665e-17
308.40000,1.6743616e-15,6.4129665e-17
308.50000,1.6825488e-15,6.4129665e-17
308.60000,1.6923322e-15,6.4129665e-17
308.70000,1.6992546e-15,6.4129665e-17
308.80000,1.6991045e-15,6.4129665e-17
308.90000,1.6892227e-15,6.4129665e-17
309.00000,1.6693112e-15,6.4129665e-17
309.10000,1.6414727e-15,6.4129665e-17
309.20000,1.6095054e-15,6.4129665e-17
309.30000,1.5777618e-15,6.4129665e-17
309.40000,1.5500262e-15,6.4129665e-17
309.50000,1.5288027e-15,6.4129665e-17
309.60000,1.5151835e-15,6.4129665e-17
309.70000,1.5091837e-15,6.4129665e-17
309.80000,1.5102386e-15,6.4129665e-17
309.90000,1.5175461e-15,6.4129665e-17
310.00000,1.5301119e-15,6.4129665e-17
310.10000,1.5465913e-15,6.4129665e-17
310.20000,1.5651800e-15,6.4129665e-17
310.30000,1.5837818e-15,6.4129665e-17
310.40000,1.6004834e-15,6.4129665e-17
310.50000,1.6141290e-15,6.4129665e-17
310.60000,1.6246671e-15,6.4129665e-17
310.70000,1.6330267e-15,6.4129665e-17
310.80000,1.6405260e-15,6.4129665e-17
310.90000,1.6480844e-15,6.4129665e-17
311.00000,1.6556296e-15,6.4129665e-17
311.10000,1.6620011e-15,6.4129665e-17
311.20000,1.6653888e-15,6.4129665e-17
311.30000,1.6640748e-15,6.4129665e-17
311.40000,1.6571030e-15,6.4129665e-17
311.50000,1.6445678e-15,6.4129665e-17
311.60000,1.6274391e-15,6.4129665e-17
311.70000,1.6071027e-15,6.4129665e-17
311.80000,1.5849402e-15,6.4129665e-17
311.90000,1.5622303e-15,6.4129665e-17
312.00000,1.5404320e-15,6.4129665e-17
312.10000,1.5216371e-15,6.4129665e-17
312.20000,1.5088059e-15,6.4129665e-17
312.30000,1.5054479e-15,6.4129665e-17
312.40000,1.5146714e-15,6.4129665e-17
312.50000,1.5378889e-15,6.4129665e-17
312.60000,1.5737294e-15,6.4129665e-17
312.70000,1.6177227e-15,6.4129665e-17
312.80000,1.6630535e-15,6.4129665e-17
312.90000,1.7022410e-15,6.4129665e-17
313.00000,1.7291983e-15,6.4129665e-17
313.10000,1.7409370e-15,6.4129665e-17
313.20000,1.7383048e-15,6.4129665e-17
313.30000,1.7255104e-15,6.4129665e-17
313.40000,1.7086515e-15,6.4129665e-17
313.50000,1.6938141e-15,6.4129665e-17
313.60000,1.6854188e-15,6.4129665e-17
313.70000,1.6853237e-15,6.4129665e-17
313.80000,1.6928357e-15,6.4129665e-17
313.90000,1.7054264e-15,6.4129665e-17
314.00000,1.7197325e-15,6.4129665e-17
314.10000,1.7324509e-15,6.4129665e-17
314.20000,1.7409272e-15,6.4129665e-17
314.30000,1.7434709e-15,6.4129665e-17
314.40000,1.7395426e-15,6.4129665e-17
314.50000,1.7299172e-15,6.4129665e-17
314.60000,1.7167758e-15,6.4129665e-17
314.70000,1.7035599e-15,6.4129665e-17
314.80000,1.6944342e-15,6.4129665e-17
314.90000,1.6933586e-15,6.4129665e-17
315.00000,1.7029894e-15,6.4129665e-17
315.10000,1.7237755e-15,6.4129665e-17
315.20000,1.7535998e-15,6.4129665e-17
315.30000,1.7881328e-15,6.4129665e-17
315.40000,1.8218051e-15,6.4129665e-17
315.50000,1.8490853e-15,6.4129665e-17
315.60000,1.8656709e-15,6.4129665e-17
315.70000,1.8692819e-15,6.4129665e-17
315.80000,1.8599143e-15,6.4129665e-17
315.90000,1.8395927e-15,6.4129665e-17
316.00000,1.8117693e-15,6.4129665e-17
316.10000,1.7805525e-15,6.4129665e-17
316.20000,1.7499287e-15,6.4129665e-17
316.30000,1.7231104e-15,6.4129665e-17
316.40000,1.7021167e-15,6.4129665e-17
316.50000,1.6876537e-15,6.4129665e-17
316.60000,1.6793024e-15,6.4129665e-17
316.70000,1.6759404e-15,6.4129665e-17
316.80000,1.6762405e-15,6.4129665e-17
316.90000,1.6790634e-15,6.4129665e-17
317.00000,1.6836055e-15,6.4129665e-17
317.10000,1.6892803e-15,6.4129665e-17
317.20000,1.6954418e-15,6.4129665e-17
317.30000,1.7011294e-15,6.4129665e-17
317.40000,1.7049869e-15,6.4129665e-17
317.50000,1.7054110e-15,6.4129665e-17
317.60000,1.7008715e-15,6.4129665e-17
317.70000,1.6902809e-15,6.4129665e-17
317.80000,1.6732960e-15,6.4129665e-17
317.90000,1.6504841e-15,6.4129665e-17
318.00000,1.6233375e-15,6.4129665e-17
318.10000,1.5941493e-15,6.4129665e-17
318.20000,1.5657670e-15,6.4129665e-17
318.30000,1.5412314e-15,6.4129665e-17
318.40000,1.5233166e-15,6.4129665e-17
318.50000,1.5140211e-15,6.4129665e-17
318.60000,1.5141056e-15,6.4129665e-17
318.70000,1.5228051e-15,6.4129665e-17
318.80000,1.5378271e-15,6.4129665e-17
318.90000,1.5556772e-15,6.4129665e-17
319.00000,1.5722649e-15,6.4129665e-17
319.10000,1.5836761e-15,6.4129665e-17
319.20000,1.5869778e-15,6.4129665e-17
319.30000,1.5809246e-15,6.4129665e-17
319.40000,1.5664372e-15,6.4129665e-17
319.50000,1.5467101e-15,6.4129665e-17
319.60000,1.5268194e-15,6.4129665e-17
319.70000,1.5127908e-15,6.4129665e-17
319.80000,1.5102629e-15,6.4129665e-17
319.90000,1.5230700e-15,6.4129665e-17
320.00000,1.5521757e-15,6.4129665e-17
320.10000,1.5953204e-15,6.4129665e-17
320.20000,1.6475095e-15,6.4129665e-17
320.30000,1.7021788e-15,6.4129665e-17
320.40000,1.7526561e-15,6.4129665e-17
320.50000,1.7934890e-15,6.4129665e-17
320.60000,1.8213262e-15,6.4129665e-17
320.70000,1.8352226e-15,6.4129665e-17
320.80000,1.8364103e-15,6.4129665e-17
320.90000,1.8276831e-15,6.4129665e-17
321.00000,1.8125834e-15,6.4129665e-17
321.10000,1.7945965e-15,6.4129665e-17
321.20000,1.7765350e-15,6.4129665e-17
321.30000,1.7602421e-15,6.4129665e-17
321.40000,1.7466361e-15,6.4129665e-17
321.50000,1.7360061e-15,6.4129665e-17
321.60000,1.7283855e-15,6.4129665e-17
321.70000,1.7238266e-15,6.4129665e-17
321.80000,1.7224699e-15,6.4129665e-17
321.90000,1.7244092e-15,6.4129665e-17
322.00000,1.7294383e-15,6.4129665e-17
322.10000,1.7367989e-15,6.4129665e-17
322.20000,1.7450319e-15,6.4129665e-17
322.30000,1.7519989e-15,6.4129665e-17
322.40000,1.7551104e-15,6.4129665e-17
322.50000,1.7517581e-15,6.4129665e-17
322.60000,1.7398904e-15,6.4129665e-17
322.70000,1.7185843e-15,6.4129665e-17
322.80000,1.6884016e-15,6.4129665e-17
322.90000,1.6513489e-15,6.4129665e-17
323.00000,1.6104027e-15,6.4129665e-17
323.10000,1.5687801e-15,6.4129665e-17
323.20000,1.5292794e-15,6.4129665e-17
323.30000,1.4939788e-15,6.4129665e-17
323.40000,1.4643714e-15,6.4129665e-17
323.50000,1.4417396e-15,6.4129665e-17
323.60000,1.4274386e-15,6.4129665e-17
323.70000,1.4228429e-15,6.4129665e-17
323.80000,1.4289638e-15,6.4129665e-17
323.90000,1.4459818e-15,6.4129665e-17
324.00000,1.4729992e-15,6.4129665e-17
324.10000,1.5081729e-15,6.4129665e-17
324.20000,1.5491467e-15,6.4129665e-17
324.30000,1.5935505e-15,6.4129665e-17
324.40000,1.6393476e-15,6.4129665e-17
324.50000,1.6849654e-15,6.4129665e-17
324.60000,1.7292907e-15,6.4129665e-17
324.70000,1.7716555e-15,6.4129665e-17
324.80000,1.8118521e-15,6.4129665e-17
324.90000,1.8501108e-15,6.4129665e-17
325.00000,1.8869373e-15,6.4129665e-17
325.10000,1.9227858e-15,6.4129665e-17
325.20000,1.9576680e-15,6.4129665e-17
325.30000,1.9908658e-15,6.4129665e-17
325.40000,2.0208779e-15,6.4129665e-17
325.50000,2.0456158e-15,6.4129665e-17
325.60000,2.0627661e-15,6.4129665e-17
325.70000,2.0702072e-15,6.4129665e-17
325.80000,2.0664046e-15,6.4129665e-17
325.90000,2.0507549e-15,6.4129665e-17
326.00000,2.0238538e-15,6.4129665e-17
326.10000,1.9876351e-15,6.4129665e-17
326.20000,1.9453088e-15,6.4129665e-17
326.30000,1.9010435e-15,6.4129665e-17
326.40000,1.8594058e-15,6.4129665e-17
326.50000,1.8246443e-15,6.4129665e-17
326.60000,1.7999635e-15,6.4129665e-17
326.70000,1.7869620e-15,6.4129665e-17
326.80000,1.7853966e-15,6.4129665e-17
326.90000,1.7933738e-15,6.4129665e-17
327.00000,1.8079584e-15,6.4129665e-17
327.10000,1.8260403e-15,6.4129665e-17
327.20000,1.8451731e-15,6.4129665e-17
327.30000,1.8640783e-15,6.4129665e-17
327.40000,1.8826277e-15,6.4129665e-17
327.50000,1.9013442e-15,6.4129665e-17
327.60000,1.9206810e-15,6.4129665e-17
327.70000,1.9404283e-15,6.4129665e-17
327.80000,1.9595082e-15,6.4129665e-17
327.90000,1.9762165e-15,6.4129665e-17
328.00000,1.9887621e-15,6.4129665e-17
328.10000,1.9958520e-15,6.4129665e-17
328.20000,1.9970883e-15,6.4129665e-17
328.30000,1.9930466e-15,6.4129665e-17
328.40000,1.9850289e-15,6.4129665e-17
328.50000,1.9745973e-15,6.4129665e-17
328.60000,1.9630734e-15,6.4129665e-17
328.70000,1.9512080e-15,6.4129665e-17
328.80000,1.9391744e-15,6.4129665e-17
328.90000,1.9269017e-15,6.4129665e-17
329.00000,1.9145950e-15,6.4129665e-17
329.10000,1.9031730e-15,6.4129665e-17
329.20000,1.8943618e-15,6.4129665e-17
329.30000,1.8903344e-15,6.4129665e-17
329.40000,1.8930060e-15,6.4129665e-17
329.50000,1.9032746e-15,6.4129665e-17
329.60000,1.9205387e-15,6.4129665e-17
329.70000,1.9427006e-15,6.4129665e-17
329.80000,1.9666634e-15,6.4129665e-17
329.90000,1.9891093e-15,6.4129665e-17
330.00000,2.0072642e-15,6.4129665e-17
330.10000,2.0194035e-15,6.4129665e-17
330.20000,2.0249946e-15,6.4129665e-17
330.30000,2.0245240e-15,6.4129665e-17
330.40000,2.0191496e-15,6.4129665e-17
330.50000,2.0103283e-15,6.4129665e-17
330.60000,1.9995166e-15,6.4129665e-17
330.70000,1.9879708e-15,6.4129665e-17
330.80000,1.9766270e-15,6.4129665e-17
330.90000,1.9660299e-15,6.4129665e-17
331.00000,1.9563012e-15,6.4129665e-17
331.10000,1.9471652e-15,6.4129665e-17
331.20000,1.9380601e-15,6.4129665e-17
331.30000,1.9283317e-15,6.4129665e-17
331.40000,1.9174583e-15,6.4129665e-17
331.50000,1.9052142e-15,6.4129665e-17
331.60000,1.8916928e-15,6.4129665e-17
331.70000,1.8771763e-15,6.4129665e-17
331.80000,1.8619351e-15,6.4129665e-17
331.90000,1.8460960e-15,6.4129665e-17
332.00000,1.8297099e-15,6.4129665e-17
332.10000,1.8130556e-15,6.4129665e-17
332.20000,1.7970718e-15,6.4129665e-17
332.30000,1.7836932e-15,6.4129665e-17
332.40000,1.7758326e-15,6.4129665e-17
332.50000,1.7768647e-15,6.4129665e-17
332.60000,1.7896865e-15,6.4129665e-17
332.70000,1.8156726e-15,6.4129665e-17
332.80000,1.8539572e-15,6.4129665e-17
332.90000,1.9013717e-15,6.4129665e-17
333.00000,1.9530873e-15,6.4129665e-17
333.10000,2.0036865e-15,6.4129665e-17
333.20000,2.0482227e-15,6.4129665e-17
333.30000,2.0828960e-15,6.4129665e-17
333.40000,2.1052275e-15,6.4129665e-17
333.50000,2.1138873e-15,6.4129665e-17
333.60000,2.1084602e-15,6.4129665e-17
333.70000,2.0893633e-15,6.4129665e-17
333.80000,2.0579407e-15,6.4129665e-17
333.90000,2.0165751e-15,6.4129665e-17
334.00000,1.9686072e-15,6.4129665e-17
334.10000,1.9179398e-15,6.4129665e-17
334.20000,1.8683853e-15,6.4129665e-17
334.30000,1.8229511e-15,6.4129665e-17
334.40000,1.7833061e-15,6.4129665e-17
334.50000,1.7495967e-15,6.4129665e-17
334.60000,1.7206600e-15,6.4129665e-17
334.70000,1.6945677e-15,6.4129665e-17
334.80000,1.6693646e-15,6.4129665e-17
334.90000,1.6438265e-15,6.4129665e-17
335.00000,1.6180440e-15,6.4129665e-17
335.10000,1.5936379e-15,6.4129665e-17
335.20000,1.5734753e-15,6.4129665e-17
335.30000,1.5608971e-15,6.4129665e-17
335.40000,1.5586575e-15,6.4129665e-17
335.50000,1.5679355e-15,6.4129665e-17
335.60000,1.5878084e-15,6.4129665e-17
335.70000,1.6154305e-15,6.4129665e-17
335.80000,1.6468887e-15,6.4129665e-17
335.90000,1.6784150e-15,6.4129665e-17
336.00000,1.7074607e-15,6.4129665e-17
336.10000,1.7331819e-15,6.4129665e-17
336.20000,1.7561362e-15,6.4129665e-17
336.30000,1.7773555e-15,6.4129665e-17
336.40000,1.7972685e-15,6.4129665e-17
336.50000,1.8150400e-15,6.4129665e-17
336.60000,1.8287033e-15,6.4129665e-17
336.70000,1.8360774e-15,6.4129665e-17
336.80000,1.8360465e-15,6.4129665e-17
336.90000,1.8295689e-15,6.4129665e-17
337.00000,1.8198754e-15,6.4129665e-17
337.10000,1.8116820e-15,6.4129665e-17
337.20000,1.8096948e-15,6.4129665e-17
337.30000,1.8170072e-15,6.4129665e-17
337.40000,1.8340283e-15,6.4129665e-17
337.50000,1.8583488e-15,6.4129665e-17
337.60000,1.8855629e-15,6.4129665e-17
337.70000,1.9107149e-15,6.4129665e-17
337.80000,1.9298459e-15,6.4129665e-17
337.90000,1.9411321e-15,6.4129665e-17
338.00000,1.9452768e-15,6.4129665e-17
338.10000,1.9450769e-15,6.4129665e-17
338.20000,1.9443388e-15,6.4129665e-17
338.30000,1.9465075e-15,6.4129665e-17
338.40000,1.9534458e-15,6.4129665e-17
338.50000,1.9647315e-15,6.4129665e-17
338.60000,1.9776671e-15,6.4129665e-17
338.70000,1.9879761e-15,6.4129665e-17
338.80000,1.9909737e-15,6.4129665e-17
338.90000,1.9828965e-15,6.4129665e-17
339.00000,1.9620551e-15,6.4129665e-17
339.10000,1.9295157e-15,6.4129665e-17
339.20000,1.8891087e-15,6.4129665e-17
339.30000,1.8467041e-15,6.4129665e-17
339.40000,1.8088915e-15,6.4129665e-17
339.50000,1.7814087e-15,6.4129665e-17
339.60000,1.7677900e-15,6.4129665e-17
339.70000,1.7686704e-15,6.4129665e-17
339.80000,1.7819570e-15,6.4129665e-17
339.90000,1.8037595e-15,6.4129665e-17
340.00000,1.8296859e-15,6.4129665e-17
340.10000,1.8560104e-15,6.4129665e-17
340.20000,1.8803389e-15,6.4129665e-17
340.30000,1.9016581e-15,6.4129665e-17
340.40000,1.9199277e-15,6.4129665e-17
340.50000,1.9355155e-15,6.4129665e-17
340.60000,1.9487528e-15,6.4129665e-17
340.70000,1.9597312e-15,6.4129665e-17
340.80000,1.9682960e-15,6.4129665e-17
340.90000,1.9740989e-15,6.4129665e-17
341.00000,1.9766094e-15,6.4129665e-17
341.10000,1.9750890e-15,6.4129665e-17
341.20000,1.9686307e-15,6.4129665e-17
341.30000,1.9563773e-15,6.4129665e-17
341.40000,1.9379325e-15,6.4129665e-17
341.50000,1.9138344e-15,6.4129665e-17
341.60000,1.8858564e-15,6.4129665e-17
341.70000,1.8569154e-15,6.4129665e-17
341.80000,1.8305129e-15,6.4129665e-17
341.90000,1.8098470e-15,6.4129665e-17
342.00000,1.7969113e-15,6.4129665e-17
342.10000,1.7919376e-15,6.4129665e-17
342.20000,1.7934263e-15,6.4129665e-17
342.30000,1.7987652e-15,6.4129665e-17
342.40000,1.8051876e-15,6.4129665e-17
342.50000,1.8106703e-15,6.4129665e-17
342.60000,1.8144048e-15,6.4129665e-17
342.70000,1.8166785e-15,6.4129665e-17
342.80000,1.8182893e-15,6.4129665e-17
342.90000,1.8198359e-15,6.4129665e-17
343.00000,1.8212669e-15,6.4129665e-17
343.10000,1.8219041e-15,6.4129665e-17
343.20000,1.8208715e-15,6.4129665e-17
343.30000,1.8176250e-15,6.4129665e-17
343.40000,1.8122305e-15,6.4129665e-17
343.50000,1.8052130e-15,6.4129665e-17
343.60000,1.7970903e-15,6.4129665e-17
343.70000,1.7879326e-15,6.4129665e-17
343.80000,1.7773004e-15,6.4129665e-17
343.90000,1.7646962e-15,6.4129665e-17
344.00000,1.7503386e-15,6.4129665e-17
344.10000,1.7358278e-15,6.4129665e-17
344.20000,1.7242661e-15,6.4129665e-17
344.30000,1.7196333e-15,6.4129665e-17
344.40000,1.7255734e-15,6.4129665e-17
344.50000,1.7440362e-15,6.4129665e-17
344.60000,1.7742966e-15,6.4129665e-17
344.70000,1.8127295e-15,6.4129665e-17
344.80000,1.8534291e-15,6.4129665e-17
344.90000,1.8894828e-15,6.4129665e-17
345.00000,1.9145247e-15,6.4129665e-17
345.10000,1.9241531e-15,6.4129665e-17
345.20000,1.9168571e-15,6.4129665e-17
345.30000,1.8942287e-15,6.4129665e-17
345.40000,1.8604125e-15,6.4129665e-17
345.50000,1.8209463e-15,6.4129665e-17
345.60000,1.7813307e-15,6.4129665e-17
345.70000,1.7457672e-15,6.4129665e-17
345.80000,1.7164435e-15,6.4129665e-17
345.90000,1.6935395e-15,6.4129665e-17
346.00000,1.6758425e-15,6.4129665e-17
346.10000,1.6616440e-15,6.4129665e-17
346.20000,1.6495403e-15,6.4129665e-17
346.30000,1.6388743e-15,6.4129665e-17
346.40000,1.6297651e-15,6.4129665e-17
346.50000,1.6228402e-15,6.4129665e-17
346.60000,1.6188534e-15,6.4129665e-17
346.70000,1.6183356e-15,6.4129665e-17
346.80000,1.6213521e-15,6.4129665e-17
346.90000,1.6273901e-15,6.4129665e-17
347.00000,1.6353944e-15,6.4129665e-17
347.10000,1.6439776e-15,6.4129665e-17
347.20000,1.6518087e-15,6.4129665e-17
347.30000,1.6581130e-15,6.4129665e-17
347.40000,1.6631229e-15,6.4129665e-17
347.50000,1.6682708e-15,6.4129665e-17
347.60000,1.6759659e-15,6.4129665e-17
347.70000,1.6889474e-15,6.4129665e-17
347.80000,1.7093945e-15,6.4129665e-17
347.90000,1.7381054e-15,6.4129665e-17
348.00000,1.7740563e-15,6.4129665e-17
348.10000,1.8145083e-15,6.4129665e-17
348.20000,1.8556138e-15,6.4129665e-17
348.30000,1.8932776e-15,6.4129665e-17
348.40000,1.9239531e-15,6.4129665e-17
348.50000,1.9451292e-15,6.4129665e-17
348.60000,1.9554428e-15,6.4129665e-17
348.70000,1.9545334e-15,6.4129665e-17
348.80000,1.9428466e-15,6.4129665e-17
348.90000,1.9215497e-15,6.4129665e-17
349.00000,1.8925874e-15,6.4129665e-17
349.10000,1.8587714e-15,6.4129665e-17
349.20000,1.8237461e-15,6.4129665e-17
349.30000,1.7917159e-15,6.4129665e-17
349.40000,1.7669310e-15,6.4129665e-17
349.50000,1.7530363e-15,6.4129665e-17
349.60000,1.7524453e-15,6.4129665e-17
349.70000,1.7658906e-15,6.4129665e-17
349.80000,1.7922510e-15,6.4129665e-17
349.90000,1.8286771e-15,6.4129665e-17
350.00000,1.8709890e-15,6.4129665e-17
350.10000,1.9142852e-15,6.4129665e-17
350.20000,1.9536877e-15,6.4129665e-17
350.30000,1.9851194e-15,6.4129665e-17
350.40000,2.0059702e-15,6.4129665e-17
350.50000,2.0154806e-15,6.4129665e-17
350.60000,2.0147018e-15,6.4129665e-17
350.70000,2.0060012e-15,6.4129665e-17
350.80000,1.9922433e-15,6.4129665e-17
350.90000,1.9759248e-15,6.4129665e-17
351.00000,1.9209828e-15,6.4129665e-17
351.10000,1.8017949e-15,1.0171196e-17
351.20000,1.8012031e-15,1.1154981e-17
351.30000,1.7986547e-15,1.0150253e-17
351.40000,1.7961063e-15,6.0404687e-18
351.50000,1.7943107e-15,1.0465701e-18
351.60000,1.7978596e-15,4.0339567e-18
351.70000,1.8044640e-15,5.8728749e-18
351.80000,1.8110683e-15,7.4695882e-19
351.90000,1.8169443e-15,4.0917143e-18
352.00000,1.8139596e-15,2.9329196e-19
352.10000,1.8085931e-15,1.4162001e-18
352.20000,1.8032266e-15,4.0347815e-18
352.30000,1.7978621e-15,3.1917572e-18
352.40000,1.7925827e-15,2.3768146e-18
