wave,flux,fluxerr
300.00000,8.1430840e-17,3.5659305e-18
300.10000,7.8955430e-17,3.5659305e-18
300.20000,7.6139151e-17,3.5659305e-18
300.30000,7.3378653e-17,3.5659305e-18
300.40000,7.1095846e-17,3.5659305e-18
300.50000,6.9633918e-17,3.5659305e-18
300.60000,6.9186719e-17,3.5659305e-18
300.70000,6.9782159e-17,3.5659305e-18
300.80000,7.1312958e-17,3.5659305e-18
300.90000,7.3587535e-17,3.5659305e-18
301.00000,7.6370550e-17,3.5659305e-18
301.10000,7.9396781e-17,3.5659305e-18
301.20000,8.2364057e-17,3.5659305e-18
301.30000,8.4927610e-17,3.5659305e-18
301.40000,8.6720178e-17,3.5659305e-18
301.50000,8.7409072e-17,3.5659305e-18
301.60000,8.6780531e-17,3.5659305e-18
301.70000,8.4823627e-17,3.5659305e-18
301.80000,8.1779264e-17,3.5659305e-18
301.90000,7.8127640e-17,3.5659305e-18
302.00000,7.4507318e-17,3.5659305e-18
302.10000,7.1583606e-17,3.5659305e-18
302.20000,6.9903584e-17,3.5659305e-18
302.30000,6.9781628e-17,3.5659305e-18
302.40000,7.1249114e-17,3.5659305e-18
302.50000,7.4079009e-17,3.5659305e-18
302.60000,7.7870178e-17,3.5659305e-18
302.70000,8.2158405e-17,3.5659305e-18
302.80000,8.6517903e-17,3.5659305e-18
302.90000,9.0627189e-17,3.5659305e-18
303.00000,9.4289927e-17,3.5659305e-18
303.10000,9.7416954e-17,3.5659305e-18
303.20000,9.9985850e-17,3.5659305e-18
303.30000,1.0199802e-16,3.5659305e-18
303.40000,1.0345083e-16,3.5659305e-18
303.50000,1.0433445e-16,3.5659305e-18
303.60000,1.0465131e-16,3.5659305e-18
303.70000,1.0444461e-16,3.5659305e-18
303.80000,1.0381727e-16,3.5659305e-18
303.90000,1.0292699e-16,3.5659305e-18
304.00000,1.0195612e-16,3.5659305e-18
304.10000,1.0106802e-16,3.5659305e-18
304.20000,1.0036880e-16,3.5659305e-18
304.30000,9.9890315e-17,3.5659305e-18
304.40000,9.9600165e-17,3.5659305e-18
304.50000,9.9433286e-17,3.5659305e-18
304.60000,9.9331531e-17,3.5659305e-18
304.70000,9.9275122e-17,3.5659305e-18
304.80000,9.9292683e-17,3.5659305e-18
304.90000,9.9444072e-17,3.5659305e-18
305.00000,9.9781009e-17,3.5659305e-18
305.10000,1.0030115e-16,3.5659305e-18
305.20000,1.0091718e-16,3.5659305e-18
305.30000,1.0146004e-16,3.5659305e-18
305.40000,1.0172320e-16,3.5659305e-18
305.50000,1.0153764e-16,3.5659305e-18
305.60000,1.0085105e-16,3.5659305e-18
305.70000,9.9777630e-17,3.5659305e-18
305.80000,9.8591749e-17,3.5659305e-18
305.90000,9.7658982e-17,3.5659305e-18
306.00000,9.7324640e-17,3.5659305e-18
306.10000,9.7801033e-17,3.5659305e-18
306.20000,9.9099047e-17,3.5659305e-18
306.30000,1.0103276e-16,3.5659305e-18
306.40000,1.0329429e-16,3.5659305e-18
306.50000,1.0556509e-16,3.5659305e-18
306.60000,1.0761502e-16,3.5659305e-18
306.70000,1.0934968e-16,3.5659305e-18
306.80000,1.1079379e-16,3.5659305e-18
306.90000,1.1202883e-16,3.5659305e-18
307.00000,1.1312198e-16,3.5659305e-18
307.10000,1.1408059e-16,3.5659305e-18
307.20000,1.1484837e-16,3.5659305e-18
307.30000,1.1533567e-16,3.5659305e-18
307.40000,1.1546155e-16,3.5659305e-18
307.50000,1.1518510e-16,3.5659305e-18
307.60000,1.1451519e-16,3.5659305e-18
307.70000,1.1350232e-16,3.5659305e-18
307.80000,1.1222432e-16,3.5659305e-18
307.90000,1.1077578e-16,3.5659305e-18
308.00000,1.0926213e-16,3.5659305e-18
308.10000,1.0779145e-16,3.5659305e-18
308.20000,1.0645587e-16,3.5659305e-18
308.30000,1.0530226e-16,3.5659305e-18
308.40000,1.0430290e-16,3.5659305e-18
308.50000,1.0334421e-16,3.5659305e-18
308.60000,1.0224835e-16,3.5659305e-18
308.70000,1.0082868e-16,3.5659305e-18
308.80000,9.8961991e-17,3.5659305e-18
308.90000,9.6648289e-17,3.5659305e-18
309.00000,9.4029659e-17,3.5659305e-18
309.10000,9.1355603e-17,3.5659305e-18
309.20000,8.8905047e-17,3.5659305e-18
309.30000,8.6895422e-17,3.5659305e-18
309.40000,8.5416628e-17,3.5659305e-18
309.50000,8.4418536e-17,3.5659305e-18
309.60000,8.3758586e-17,3.5659305e-18
309.70000,8.3290197e-17,3.5659305e-18
309.80000,8.2954600e-17,3.5659305e-18
309.90000,8.2836685e-17,3.5659305e-18
310.00000,8.3160610e-17,3.5659305e-18
310.10000,8.4226363e-17,3.5659305e-18
310.20000,8.6312325e-17,3.5659305e-18
310.30000,8.9580502e-17,3.5659305e-18
310.40000,9.4016327e-17,3.5659305e-18
310.50000,9.9418117e-17,3.5659305e-18
310.60000,1.0543186e-16,3.5659305e-18
310.70000,1.1161408e-16,3.5659305e-18
310.80000,1.1750289e-16,3.5659305e-18
310.90000,1.2268252e-16,3.5659305e-18
311.00000,1.2683381e-16,3.5659305e-18
311.10000,1.2976745e-16,3.5659305e-18
311.20000,1.3143770e-16,3.5659305e-18
311.30000,1.3193435e-16,3.5659305e-18
311.40000,1.3145295e-16,3.5659305e-18
311.50000,1.3024870e-16,3.5659305e-18
311.60000,1.2858532e-16,3.5659305e-18
311.70000,1.2669324e-16,3.5659305e-18
311.80000,1.2474823e-16,3.5659305e-18
311.90000,1.2287387e-16,3.5659305e-18
312.00000,1.2116154e-16,3.5659305e-18
312.10000,1.1969534e-16,3.5659305e-18
312.20000,1.1856829e-16,3.5659305e-18
312.30000,1.1788102e-16,3.5659305e-18
312.40000,1.1772155e-16,3.5659305e-18
312.50000,1.1813237e-16,3.5659305e-18
312.60000,1.1907677e-16,3.5659305e-18
312.70000,1.2041912e-16,3.5659305e-18
312.80000,1.2193234e-16,3.5659305e-18
312.90000,1.2333873e-16,3.5659305e-18
313.00000,1.2437827e-16,3.5659305e-18
313.10000,1.2488527e-16,3.5659305e-18
313.20000,1.2484499e-16,3.5659305e-18
313.30000,1.2440459e-16,3.5659305e-18
313.40000,1.2382727e-16,3.5659305e-18
313.50000,1.2340075e-16,3.5659305e-18
313.60000,1.2333134e-16,3.5659305e-18
313.70000,1.2366224e-16,3.5659305e-18
313.80000,1.2424684e-16,3.5659305e-18
313.90000,1.2478736e-16,3.5659305e-18
314.00000,1.2492639e-16,3.5659305e-18
314.10000,1.2436208e-16,3.5659305e-18
314.20000,1.2295271e-16,3.5659305e-18
314.30000,1.2078082e-16,3.5659305e-18
314.40000,1.1815865e-16,3.5659305e-18
314.50000,1.1557081e-16,3.5659305e-18
314.60000,1.1356536e-16,3.5659305e-18
314.70000,1.1261814e-16,3.5659305e-18
314.80000,1.1300512e-16,3.5659305e-18
314.90000,1.1471848e-16,3.5659305e-18
315.00000,1.1745306e-16,3.5659305e-18
315.10000,1.2067033e-16,3.5659305e-18
315.20000,1.2372442e-16,3.5659305e-18
315.30000,1.2601487e-16,3.5659305e-18
315.40000,1.2712246e-16,3.5659305e-18
315.50000,1.2688976e-16,3.5659305e-18
315.60000,1.2542617e-16,3.5659305e-18
315.70000,1.2304212e-16,3.5659305e-18
315.80000,1.2013954e-16,3.5659305e-18
315.90000,1.1709899e-16,3.5659305e-18
316.00000,1.1420124e-16,3.5659305e-18
316.10000,1.1160462e-16,3.5659305e-18
316.20000,1.0937513e-16,3.5659305e-18
316.30000,1.0754453e-16,3.5659305e-18
316.40000,1.0616302e-16,3.5659305e-18
316.50000,1.0532069e-16,3.5659305e-18
316.60000,1.0513109e-16,3.5659305e-18
316.70000,1.0569082e-16,3.5659305e-18
316.80000,1.0703823e-16,3.5659305e-18
316.90000,1.0913077e-16,3.5659305e-18
317.00000,1.1184660e-16,3.5659305e-18
317.10000,1.1500310e-16,3.5659305e-18
317.20000,1.1838002e-16,3.5659305e-18
317.30000,1.2173864e-16,3.5659305e-18
317.40000,1.2483691e-16,3.5659305e-18
317.50000,1.2744600e-16,3.5659305e-18
317.60000,1.2937318e-16,3.5659305e-18
317.70000,1.3048960e-16,3.5659305e-18
317.80000,1.3075473e-16,3.5659305e-18
317.90000,1.3022633e-16,3.5659305e-18
318.00000,1.2904903e-16,3.5659305e-18
318.10000,1.2742287e-16,3.5659305e-18
318.20000,1.2556205e-16,3.5659305e-18
318.30000,1.2365728e-16,3.5659305e-18
318.40000,1.2185168e-16,3.5659305e-18
318.50000,1.2023262e-16,3.5659305e-18
318.60000,1.1883434e-16,3.5659305e-18
318.70000,1.1764402e-16,3.5659305e-18
318.80000,1.1660622e-16,3.5659305e-18
318.90000,1.1562690e-16,3.5659305e-18
319.00000,1.1458301e-16,3.5659305e-18
319.10000,1.1334553e-16,3.5659305e-18
319.20000,1.1181920e-16,3.5659305e-18
319.30000,1.0999317e-16,3.5659305e-18
319.40000,1.0798567e-16,3.5659305e-18
319.50000,1.0606011e-16,3.5659305e-18
319.60000,1.0459448e-16,3.5659305e-18
319.70000,1.0400151e-16,3.5659305e-18
319.80000,1.0461886e-16,3.5659305e-18
319.90000,1.0660433e-16,3.5659305e-18
320.00000,1.0987302e-16,3.5659305e-18
320.10000,1.1409839e-16,3.5659305e-18
320.20000,1.1877614e-16,3.5659305e-18
320.30000,1.2332820e-16,3.5659305e-18
320.40000,1.2721531e-16,3.5659305e-18
320.50000,1.3002917e-16,3.5659305e-18
320.60000,1.3154728e-16,3.5659305e-18
320.70000,1.3174583e-16,3.5659305e-18
320.80000,1.3077635e-16,3.5659305e-18
320.90000,1.2891792e-16,3.5659305e-18
321.00000,1.2651842e-16,3.5659305e-18
321.10000,1.2393739e-16,3.5659305e-18
321.20000,1.2149886e-16,3.5659305e-18
321.30000,1.1945731e-16,3.5659305e-18
321.40000,1.1797625e-16,3.5659305e-18
321.50000,1.1711815e-16,3.5659305e-18
321.60000,1.1684586e-16,3.5659305e-18
321.70000,1.1703713e-16,3.5659305e-18
321.80000,1.1751244e-16,3.5659305e-18
321.90000,1.1807237e-16,3.5659305e-18
322.00000,1.1853677e-16,3.5659305e-18
322.10000,1.1877615e-16,3.5659305e-18
322.20000,1.1872816e-16,3.5659305e-18
322.30000,1.1839741e-16,3.5659305e-18
322.40000,1.1784237e-16,3.5659305e-18
322.50000,1.1715584e-16,3.5659305e-18
322.60000,1.1644453e-16,3.5659305e-18
322.70000,1.1581030e-16,3.5659305e-18
322.80000,1.1533319e-16,3.5659305e-18
322.90000,1.1505685e-16,3.5659305e-18
323.00000,1.1498015e-16,3.5659305e-18
323.10000,1.1506063e-16,3.5659305e-18
323.20000,1.1523334e-16,3.5659305e-18
323.30000,1.1544150e-16,3.5659305e-18
323.40000,1.1566670e-16,3.5659305e-18
323.50000,1.1594388e-16,3.5659305e-18
323.60000,1.1635153e-16,3.5659305e-18
323.70000,1.1697993e-16,3.5659305e-18
323.80000,1.1789237e-16,3.5659305e-18
323.90000,1.1909805e-16,3.5659305e-18
324.00000,1.2054887e-16,3.5659305e-18
324.10000,1.2215943e-16,3.5659305e-18
324.20000,1.2383834e-16,3.5659305e-18
324.30000,1.2551543e-16,3.5659305e-18
324.40000,1.2715535e-16,3.5659305e-18
324.50000,1.2875758e-16,3.5659305e-18
324.60000,1.3034930e-16,3.5659305e-18
324.70000,1.3197802e-16,3.5659305e-18
324.80000,1.3370526e-16,3.5659305e-18
324.90000,1.3559749e-16,3.5659305e-18
325.00000,1.3771036e-16,3.5659305e-18
325.10000,1.4006720e-16,3.5659305e-18
325.20000,1.4263898e-16,3.5659305e-18
325.30000,1.4533507e-16,3.5659305e-18
325.40000,1.4801043e-16,3.5659305e-18
325.50000,1.5048785e-16,3.5659305e-18
325.60000,1.5258809e-16,3.5659305e-18
325.70000,1.5415959e-16,3.5659305e-18
325.80000,1.5510193e-16,3.5659305e-18
325.90000,1.5538068e-16,3.5659305e-18
326.00000,1.5503331e-16,3.5659305e-18
326.10000,1.5416587e-16,3.5659305e-18
326.20000,1.5293994e-16,3.5659305e-18
326.30000,1.5155002e-16,3.5659305e-18
326.40000,1.5019321e-16,3.5659305e-18
326.50000,1.4903557e-16,3.5659305e-18
326.60000,1.4818226e-16,3.5659305e-18
326.70000,1.4766043e-16,3.5659305e-18
326.80000,1.4742282e-16,3.5659305e-18
326.90000,1.4737543e-16,3.5659305e-18
327.00000,1.4742294e-16,3.5659305e-18
327.10000,1.4751630e-16,3.5659305e-18
327.20000,1.4768164e-16,3.5659305e-18
327.30000,1.4801569e-16,3.5659305e-18
327.40000,1.4864698e-16,3.5659305e-18
327.50000,1.4967884e-16,3.5659305e-18
327.60000,1.5113907e-16,3.5659305e-18
327.70000,1.5295775e-16,3.5659305e-18
327.80000,1.5498029e-16,3.5659305e-18
327.90000,1.5700655e-16,3.5659305e-18
328.00000,1.5883714e-16,3.5659305e-18
328.10000,1.6030927e-16,3.5659305e-18
328.20000,1.6131309e-16,3.5659305e-18
328.30000,1.6179029e-16,3.5659305e-18
328.40000,1.6172348e-16,3.5659305e-18
328.50000,1.6112598e-16,3.5659305e-18
328.60000,1.6003702e-16,3.5659305e-18
328.70000,1.5852383e-16,3.5659305e-18
328.80000,1.5668714e-16,3.5659305e-18
328.90000,1.5466455e-16,3.5659305e-18
329.00000,1.5262592e-16,3.5659305e-18
329.10000,1.5075707e-16,3.5659305e-18
329.20000,1.4923201e-16,3.5659305e-18
329.30000,1.4817963e-16,3.5659305e-18
329.40000,1.4765553e-16,3.5659305e-18
329.50000,1.4763077e-16,3.5659305e-18
329.60000,1.4800400e-16,3.5659305e-18
329.70000,1.4863331e-16,3.5659305e-18
329.80000,1.4937439e-16,3.5659305e-18
329.90000,1.5010819e-16,3.5659305e-18
330.00000,1.5074793e-16,3.5659305e-18
330.10000,1.5122819e-16,3.5659305e-18
330.20000,1.5149028e-16,3.5659305e-18
330.30000,1.5147991e-16,3.5659305e-18
330.40000,1.5116378e-16,3.5659305e-18
330.50000,1.5055734e-16,3.5659305e-18
330.60000,1.4974603e-16,3.5659305e-18
330.70000,1.4888290e-16,3.5659305e-18
330.80000,1.4815641e-16,3.5659305e-18
330.90000,1.4773676e-16,3.5659305e-18
331.00000,1.4771920e-16,3.5659305e-18
331.10000,1.4808489e-16,3.5659305e-18
331.20000,1.4869407e-16,3.5659305e-18
331.30000,1.4931583e-16,3.5659305e-18
331.40000,1.4968747e-16,3.5659305e-18
331.50000,1.4958631e-16,3.5659305e-18
331.60000,1.4889148e-16,3.5659305e-18
331.70000,1.4761504e-16,3.5659305e-18
331.80000,1.4589216e-16,3.5659305e-18
331.90000,1.4393639e-16,3.5659305e-18
332.00000,1.4198122e-16,3.5659305e-18
332.10000,1.4023377e-16,3.5659305e-18
332.20000,1.3885777e-16,3.5659305e-18
332.30000,1.3798419e-16,3.5659305e-18
332.40000,1.3773036e-16,3.5659305e-18
332.50000,1.3820399e-16,3.5659305e-18
332.60000,1.3947988e-16,3.5659305e-18
332.70000,1.4155763e-16,3.5659305e-18
332.80000,1.4432497e-16,3.5659305e-18
332.90000,1.4755162e-16,3.5659305e-18
333.00000,1.5092379e-16,3.5659305e-18
333.10000,1.5410834e-16,3.5659305e-18
333.20000,1.5682138e-16,3.5659305e-18
333.30000,1.5887673e-16,3.5659305e-18
333.40000,1.6020192e-16,3.5659305e-18
333.50000,1.6082509e-16,3.5659305e-18
333.60000,1.6084544e-16,3.5659305e-18
333.70000,1.6040053e-16,3.5659305e-18
333.80000,1.5963796e-16,3.5659305e-18
333.90000,1.5869279e-16,3.5659305e-18
334.00000,1.5766936e-16,3.5659305e-18
334.10000,1.5662715e-16,3.5659305e-18
334.20000,1.5557281e-16,3.5659305e-18
334.30000,1.5446252e-16,3.5659305e-18
334.40000,1.5321820e-16,3.5659305e-18
334.50000,1.5175791e-16,3.5659305e-18
334.60000,1.5003532e-16,3.5659305e-18
334.70000,1.4807706e-16,3.5659305e-18
334.80000,1.4600197e-16,3.5659305e-18
334.90000,1.4400756e-16,3.5659305e-18
335.00000,1.4231713e-16,3.5659305e-18
335.10000,1.4109681e-16,3.5659305e-18
335.20000,1.4036814e-16,3.5659305e-18
335.30000,1.3995256e-16,3.5659305e-18
335.40000,1.3947995e-16,3.5659305e-18
335.50000,1.3847479e-16,3.5659305e-18
335.60000,1.3650386e-16,3.5659305e-18
335.70000,1.3334108e-16,3.5659305e-18
335.80000,1.2908981e-16,3.5659305e-18
335.90000,1.2420919e-16,3.5659305e-18
336.00000,1.1941996e-16,3.5659305e-18
336.10000,1.1550831e-16,3.5659305e-18
336.20000,1.1308787e-16,3.5659305e-18
336.30000,1.1240272e-16,3.5659305e-18
336.40000,1.1324515e-16,3.5659305e-18
336.50000,1.1502245e-16,3.5659305e-18
336.60000,1.1695174e-16,3.5659305e-18
336.70000,1.1831368e-16,3.5659305e-18
336.80000,1.1867509e-16,3.5659305e-18
336.90000,1.1800551e-16,3.5659305e-18
337.00000,1.1665488e-16,3.5659305e-18
337.10000,1.1521060e-16,3.5659305e-18
337.20000,1.1429210e-16,3.5659305e-18
337.30000,1.1435618e-16,3.5659305e-18
337.40000,1.1557453e-16,3.5659305e-18
337.50000,1.1781401e-16,3.5659305e-18
337.60000,1.2071332e-16,3.5659305e-18
337.70000,1.2381931e-16,3.5659305e-18
337.80000,1.2673228e-16,3.5659305e-18
337.90000,1.2921289e-16,3.5659305e-18
338.00000,1.3122167e-16,3.5659305e-18
338.10000,1.3288698e-16,3.5659305e-18
338.20000,1.3442088e-16,3.5659305e-18
338.30000,1.3601734e-16,3.5659305e-18
338.40000,1.3776860e-16,3.5659305e-18
338.50000,1.3962572e-16,3.5659305e-18
338.60000,1.4141144e-16,3.5659305e-18
338.70000,1.4287665e-16,3.5659305e-18
338.80000,1.4378020e-16,3.5659305e-18
338.90000,1.4396923e-16,3.5659305e-18
339.00000,1.4343929e-16,3.5659305e-18
339.10000,1.4235915e-16,3.5659305e-18
339.20000,1.4105119e-16,3.5659305e-18
339.30000,1.3992711e-16,3.5659305e-18
339.40000,1.3939053e-16,3.5659305e-18
339.50000,1.3973094e-16,3.5659305e-18
339.60000,1.4104100e-16,3.5659305e-18
339.70000,1.4318566e-16,3.5659305e-18
339.80000,1.4583610e-16,3.5659305e-18
339.90000,1.4855844e-16,3.5659305e-18
340.00000,1.5092769e-16,3.5659305e-18
340.10000,1.5262940e-16,3.5659305e-18
340.20000,1.5351791e-16,3.5659305e-18
340.30000,1.5361853e-16,3.5659305e-18
340.40000,1.5308171e-16,3.5659305e-18
340.50000,1.5211256e-16,3.5659305e-18
340.60000,1.5090258e-16,3.5659305e-18
340.70000,1.4958346e-16,3.5659305e-18
340.80000,1.4821004e-16,3.5659305e-18
340.90000,1.4676870e-16,3.5659305e-18
341.00000,1.4520330e-16,3.5659305e-18
341.10000,1.4345120e-16,3.5659305e-18
341.20000,1.4148337e-16,3.5659305e-18
341.30000,1.3934101e-16,3.5659305e-18
341.40000,1.3715645e-16,3.5659305e-18
341.50000,1.3514514e-16,3.5659305e-18
341.60000,1.3356194e-16,3.5659305e-18
341.70000,1.3262965e-16,3.5659305e-18
341.80000,1.3246350e-16,3.5659305e-18
341.90000,1.3302261e-16,3.5659305e-18
342.00000,1.3411236e-16,3.5659305e-18
342.10000,1.3544176e-16,3.5659305e-18
342.20000,1.3671642e-16,3.5659305e-18
342.30000,1.3773188e-16,3.5659305e-18
342.40000,1.3843115e-16,3.5659305e-18
342.50000,1.3890466e-16,3.5659305e-18
342.60000,1.3933378e-16,3.5659305e-18
342.70000,1.3990195e-16,3.5659305e-18
342.80000,1.4070919e-16,3.5659305e-18
342.90000,1.4172391e-16,3.5659305e-18
343.00000,1.4278909e-16,3.5659305e-18
343.10000,1.4367669e-16,3.5659305e-18
343.20000,1.4416365e-16,3.5659305e-18
343.30000,1.4409527e-16,3.5659305e-18
343.40000,1.4341025e-16,3.5659305e-18
343.50000,1.4212346e-16,3.5659305e-18
343.60000,1.4028533e-16,3.5659305e-18
343.70000,1.3794879e-16,3.5659305e-18
343.80000,1.3516854e-16,3.5659305e-18
343.90000,1.3203607e-16,3.5659305e-18
344.00000,1.2872921e-16,3.5659305e-18
344.10000,1.2554224e-16,3.5659305e-18
344.20000,1.2286853e-16,3.5659305e-18
344.30000,1.2113065e-16,3.5659305e-18
344.40000,1.2067870e-16,3.5659305e-18
344.50000,1.2169385e-16,3.5659305e-18
344.60000,1.2413209e-16,3.5659305e-18
344.70000,1.2772672e-16,3.5659305e-18
344.80000,1.3204624e-16,3.5659305e-18
344.90000,1.3658773e-16,3.5659305e-18
345.00000,1.4087825e-16,3.5659305e-18
345.10000,1.4455874e-16,3.5659305e-18
345.20000,1.4743172e-16,3.5659305e-18
345.30000,1.4946450e-16,3.5659305e-18
345.40000,1.5075142e-16,3.5659305e-18
345.50000,1.5145151e-16,3.5659305e-18
345.60000,1.5172495e-16,3.5659305e-18
345.70000,1.5169092e-16,3.5659305e-18
345.80000,1.5141778e-16,3.5659305e-18
345.90000,1.5093978e-16,3.5659305e-18
346.00000,1.5028289e-16,3.5659305e-18
346.10000,1.4948118e-16,3.5659305e-18
346.20000,1.4857649e-16,3.5659305e-18
346.30000,1.4760767e-16,3.5659305e-18
346.40000,1.4660306e-16,3.5659305e-18
346.50000,1.4558527e-16,3.5659305e-18
346.60000,1.4458502e-16,3.5659305e-18
346.70000,1.4365058e-16,3.5659305e-18
346.80000,1.4284057e-16,3.5659305e-18
346.90000,1.4220000e-16,3.5659305e-18
347.00000,1.4173547e-16,3.5659305e-18
347.10000,1.4141143e-16,3.5659305e-18
347.20000,1.4118024e-16,3.5659305e-18
347.30000,1.4103691e-16,3.5659305e-18
347.40000,1.4106954e-16,3.5659305e-18
347.50000,1.4147130e-16,3.5659305e-18
347.60000,1.4249562e-16,3.5659305e-18
347.70000,1.4436495e-16,3.5659305e-18
347.80000,1.4717008e-16,3.5659305e-18
347.90000,1.5080526e-16,3.5659305e-18
348.00000,1.5497054e-16,3.5659305e-18
348.10000,1.5924216e-16,3.5659305e-18
348.20000,1.6318151e-16,3.5659305e-18
348.30000,1.6643765e-16,3.5659305e-18
348.40000,1.6880526e-16,3.5659305e-18
348.50000,1.7022449e-16,3.5659305e-18
348.60000,1.7073776e-16,3.5659305e-18
348.70000,1.7043652e-16,3.5659305e-18
348.80000,1.6942883e-16,3.5659305e-18
348.90000,1.6784050e-16,3.5659305e-18
349.00000,1.6583883e-16,3.5659305e-18
349.10000,1.6365328e-16,3.5659305e-18
349.20000,1.6156954e-16,3.5659305e-18
349.30000,1.5988975e-16,3.5659305e-18
349.40000,1.5887268e-16,3.5659305e-18
349.50000,1.5867942e-16,3.5659305e-18
349.60000,1.5934747e-16,3.5659305e-18
349.70000,1.6080047e-16,3.5659305e-18
349.80000,1.6288258e-16,3.5659305e-18
349.90000,1.6539648e-16,3.5659305e-18
350.00000,1.6812807e-16,3.5659305e-18
350.10000,1.7085387e-16,3.5659305e-18
350.20000,1.7334141e-16,3.5659305e-18
350.30000,1.7535747e-16,3.5659305e-18
350.40000,1.7669271e-16,3.5659305e-18
350.50000,1.7719847e-16,3.5659305e-18
350.60000,1.7682032e-16,3.5659305e-18
350.70000,1.7561178e-16,3.5659305e-18
350.80000,1.7371998e-16,3.5659305e-18
350.90000,1.7134904e-16,3.5659305e-18
351.00000,1.6823436e-16,3.5659305e-18
351.10000,1.6433137e-16,4.3079550e-18
351.20000,1.6631668e-16,5.5221295e-18
351.30000,1.6457480e-16,4.2088221e-18
351.40000,1.6134178e-16,1.3771575e-18
351.50000,1.5793012e-16,8.3693369e-19
351.60000,1.5598858e-16,7.9500683e-19
351.70000,1.5503892e-16,1.0093552e-18
351.80000,1.5656575e-16,4.8821488e-19
351.90000,1.6054149e-16,1.9252136e-18
352.00000,1.6440701e-16,3.9826906e-18
352.10000,1.6169305e-16,2.7504305e-18
352.20000,1.5707222e-16,1.3567197e-18
352.30000,1.5201959e-16,2.5093096e-18
352.40000,1.4681286e-16,2.5317713e-18
