wave,flux,fluxerr
300.00000,7.8860440e-17,1.8864605e-18
300.10000,7.6084688e-17,1.8864605e-18
300.20000,7.3604943e-17,1.8864605e-18
300.30000,7.1763124e-17,1.8864605e-18
300.40000,7.0791889e-17,1.8864605e-18
300.50000,7.0787506e-17,1.8864605e-18
300.60000,7.1709862e-17,1.8864605e-18
300.70000,7.3400320e-17,1.8864605e-18
300.80000,7.5606976e-17,1.8864605e-18
300.90000,7.8012113e-17,1.8864605e-18
301.00000,8.0263739e-17,1.8864605e-18
301.10000,8.2016454e-17,1.8864605e-18
301.20000,8.2983763e-17,1.8864605e-18
301.30000,8.2995860e-17,1.8864605e-18
301.40000,8.2048310e-17,1.8864605e-18
301.50000,8.0323081e-17,1.8864605e-18
301.60000,7.8167290e-17,1.8864605e-18
301.70000,7.6026666e-17,1.8864605e-18
301.80000,7.4346758e-17,1.8864605e-18
301.90000,7.3468775e-17,1.8864605e-18
302.00000,7.3552268e-17,1.8864605e-18
302.10000,7.4549617e-17,1.8864605e-18
302.20000,7.6239593e-17,1.8864605e-18
302.30000,7.8306167e-17,1.8864605e-18
302.40000,8.0433722e-17,1.8864605e-18
302.50000,8.2387061e-17,1.8864605e-18
302.60000,8.4054048e-17,1.8864605e-18
302.70000,8.5444525e-17,1.8864605e-18
302.80000,8.6653894e-17,1.8864605e-18
302.90000,8.7808336e-17,1.8864605e-18
303.00000,8.9010348e-17,1.8864605e-18
303.10000,9.0299956e-17,1.8864605e-18
303.20000,9.1640772e-17,1.8864605e-18
303.30000,9.2932530e-17,1.8864605e-18
303.40000,9.4044016e-17,1.8864605e-18
303.50000,9.4854455e-17,1.8864605e-18
303.60000,9.5289433e-17,1.8864605e-18
303.70000,9.5340414e-17,1.8864605e-18
303.80000,9.5063509e-17,1.8864605e-18
303.90000,9.4560651e-17,1.8864605e-18
304.00000,9.3951801e-17,1.8864605e-18
304.10000,9.3348614e-17,1.8864605e-18
304.20000,9.2837861e-17,1.8864605e-18
304.30000,9.2477806e-17,1.8864605e-18
304.40000,9.2304495e-17,1.8864605e-18
304.50000,9.2340089e-17,1.8864605e-18
304.60000,9.2594544e-17,1.8864605e-18
304.70000,9.3056119e-17,1.8864605e-18
304.80000,9.3673962e-17,1.8864605e-18
304.90000,9.4343392e-17,1.8864605e-18
305.00000,9.4907163e-17,1.8864605e-18
305.10000,9.5181433e-17,1.8864605e-18
305.20000,9.5004509e-17,1.8864605e-18
305.30000,9.4294077e-17,1.8864605e-18
305.40000,9.3090615e-17,1.8864605e-18
305.50000,9.1565890e-17,1.8864605e-18
305.60000,8.9987106e-17,1.8864605e-18
305.70000,8.8645404e-17,1.8864605e-18
305.80000,8.7773946e-17,1.8864605e-18
305.90000,8.7486924e-17,1.8864605e-18
306.00000,8.7762468e-17,1.8864605e-18
306.10000,8.8472807e-17,1.8864605e-18
306.20000,8.9444189e-17,1.8864605e-18
306.30000,9.0517851e-17,1.8864605e-18
306.40000,9.1587156e-17,1.8864605e-18
306.50000,9.2601589e-17,1.8864605e-18
306.60000,9.3545956e-17,1.8864605e-18
306.70000,9.4412928e-17,1.8864605e-18
306.80000,9.5185030e-17,1.8864605e-18
306.90000,9.5831720e-17,1.8864605e-18
307.00000,9.6316459e-17,1.8864605e-18
307.10000,9.6604492e-17,1.8864605e-18
307.20000,9.6665827e-17,1.8864605e-18
307.30000,9.6475323e-17,1.8864605e-18
307.40000,9.6016234e-17,1.8864605e-18
307.50000,9.5291402e-17,1.8864605e-18
307.60000,9.4338866e-17,1.8864605e-18
307.70000,9.3241569e-17,1.8864605e-18
307.80000,9.2119733e-17,1.8864605e-18
307.90000,9.1101249e-17,1.8864605e-18
308.00000,9.0277198e-17,1.8864605e-18
308.10000,8.9659957e-17,1.8864605e-18
308.20000,8.9164335e-17,1.8864605e-18
308.30000,8.8625131e-17,1.8864605e-18
308.40000,8.7849841e-17,1.8864605e-18
308.50000,8.6689361e-17,1.8864605e-18
308.60000,8.5099850e-17,1.8864605e-18
308.70000,8.3170402e-17,1.8864605e-18
308.80000,8.1103766e-17,1.8864605e-18
308.90000,7.9156021e-17,1.8864605e-18
309.00000,7.7557947e-17,1.8864605e-18
309.10000,7.6448533e-17,1.8864605e-18
309.20000,7.5846162e-17,1.8864605e-18
309.30000,7.5667188e-17,1.8864605e-18
309.40000,7.5781545e-17,1.8864605e-18
309.50000,7.6079693e-17,1.8864605e-18
309.60000,7.6521698e-17,1.8864605e-18
309.70000,7.7149221e-17,1.8864605e-18
309.80000,7.8059336e-17,1.8864605e-18
309.90000,7.9355943e-17,1.8864605e-18
310.00000,8.1101819e-17,1.8864605e-18
310.10000,8.3289539e-17,1.8864605e-18
310.20000,8.5837220e-17,1.8864605e-18
310.30000,8.8603267e-17,1.8864605e-18
310.40000,9.1409354e-17,1.8864605e-18
310.50000,9.4063611e-17,1.8864605e-18
310.60000,9.6382015e-17,1.8864605e-18
310.70000,9.8209808e-17,1.8864605e-18
310.80000,9.9443509e-17,1.8864605e-18
310.90000,1.0004941e-16,1.8864605e-18
311.00000,1.0007075e-16,1.8864605e-18
311.10000,9.9616805e-17,1.8864605e-18
311.20000,9.8833785e-17,1.8864605e-18
311.30000,9.7866085e-17,1.8864605e-18
311.40000,9.6822929e-17,1.8864605e-18
311.50000,9.5764916e-17,1.8864605e-18
311.60000,9.4716971e-17,1.8864605e-18
311.70000,9.3701552e-17,1.8864605e-18
311.80000,9.2774887e-17,1.8864605e-18
311.90000,9.2045512e-17,1.8864605e-18
312.00000,9.1661227e-17,1.8864605e-18
312.10000,9.1765175e-17,1.8864605e-18
312.20000,9.2437241e-17,1.8864605e-18
312.30000,9.3645716e-17,1.8864605e-18
312.40000,9.5231915e-17,1.8864605e-18
312.50000,9.6938028e-17,1.8864605e-18
312.60000,9.8471685e-17,1.8864605e-18
312.70000,9.9586376e-17,1.8864605e-18
312.80000,1.0015058e-16,1.8864605e-18
312.90000,1.0018192e-16,1.8864605e-18
313.00000,9.9834575e-17,1.8864605e-18
313.10000,9.9343623e-17,1.8864605e-18
313.20000,9.8944829e-17,1.8864605e-18
313.30000,9.8796088e-17,1.8864605e-18
313.40000,9.8925885e-17,1.8864605e-18
313.50000,9.9224323e-17,1.8864605e-18
313.60000,9.9477933e-17,1.8864605e-18
313.70000,9.9436196e-17,1.8864605e-18
313.80000,9.8889759e-17,1.8864605e-18
313.90000,9.7739264e-17,1.8864605e-18
314.00000,9.6037715e-17,1.8864605e-18
314.10000,9.3995900e-17,1.8864605e-18
314.20000,9.1948103e-17,1.8864605e-18
314.30000,9.0283670e-17,1.8864605e-18
314.40000,8.9358654e-17,1.8864605e-18
314.50000,8.9408637e-17,1.8864605e-18
314.60000,9.0486048e-17,1.8864605e-18
314.70000,9.2440490e-17,1.8864605e-18
314.80000,9.4949120e-17,1.8864605e-18
314.90000,9.7589376e-17,1.8864605e-18
315.00000,9.9933461e-17,1.8864605e-18
315.10000,1.0163763e-16,1.8864605e-18
315.20000,1.0250188e-16,1.8864605e-18
315.30000,1.0248630e-16,1.8864605e-18
315.40000,1.0168513e-16,1.8864605e-18
315.50000,1.0027346e-16,1.8864605e-18
315.60000,9.8449251e-17,1.8864605e-18
315.70000,9.6391802e-17,1.8864605e-18
315.80000,9.4248195e-17,1.8864605e-18
315.90000,9.2144792e-17,1.8864605e-18
316.00000,9.0209097e-17,1.8864605e-18
316.10000,8.8583391e-17,1.8864605e-18
316.20000,8.7417978e-17,1.8864605e-18
316.30000,8.6844943e-17,1.8864605e-18
316.40000,8.6945372e-17,1.8864605e-18
316.50000,8.7726926e-17,1.8864605e-18
316.60000,8.9122455e-17,1.8864605e-18
316.70000,9.1008393e-17,1.8864605e-18
316.80000,9.3231831e-17,1.8864605e-18
316.90000,9.5633118e-17,1.8864605e-18
317.00000,9.8056852e-17,1.8864605e-18
317.10000,1.0035330e-16,1.8864605e-18
317.20000,1.0237848e-16,1.8864605e-18
317.30000,1.0400095e-16,1.8864605e-18
317.40000,1.0511740e-16,1.8864605e-18
317.50000,1.0567206e-16,1.8864605e-18
317.60000,1.0567048e-16,1.8864605e-18
317.70000,1.0517984e-16,1.8864605e-18
317.80000,1.0431349e-16,1.8864605e-18
317.90000,1.0320474e-16,1.8864605e-18
318.00000,1.0197882e-16,1.8864605e-18
318.10000,1.0073243e-16,1.8864605e-18
318.20000,9.9525254e-17,1.8864605e-18
318.30000,9.8382962e-17,1.8864605e-18
318.40000,9.7306202e-17,1.8864605e-18
318.50000,9.6279379e-17,1.8864605e-18
318.60000,9.5275274e-17,1.8864605e-18
318.70000,9.4256650e-17,1.8864605e-18
318.80000,9.3180776e-17,1.8864605e-18
318.90000,9.2013937e-17,1.8864605e-18
319.00000,9.0758059e-17,1.8864605e-18
319.10000,8.9482027e-17,1.8864605e-18
319.20000,8.8341159e-17,1.8864605e-18
319.30000,8.7566887e-17,1.8864605e-18
319.40000,8.7418450e-17,1.8864605e-18
319.50000,8.8106343e-17,1.8864605e-18
319.60000,8.9713916e-17,1.8864605e-18
319.70000,9.2148794e-17,1.8864605e-18
319.80000,9.5145661e-17,1.8864605e-18
319.90000,9.8321161e-17,1.8864605e-18
320.00000,1.0126131e-16,1.8864605e-18
320.10000,1.0361176e-16,1.8864605e-18
320.20000,1.0514448e-16,1.8864605e-18
320.30000,1.0578713e-16,1.8864605e-18
320.40000,1.0561460e-16,1.8864605e-18
320.50000,1.0481241e-16,1.8864605e-18
320.60000,1.0362477e-16,1.8864605e-18
320.70000,1.0230070e-16,1.8864605e-18
320.80000,1.0104955e-16,1.8864605e-18
320.90000,1.0001354e-16,1.8864605e-18
321.00000,9.9260539e-17,1.8864605e-18
321.10000,9.8794322e-17,1.8864605e-18
321.20000,9.8575435e-17,1.8864605e-18
321.30000,9.8544407e-17,1.8864605e-18
321.40000,9.8640795e-17,1.8864605e-18
321.50000,9.8814807e-17,1.8864605e-18
321.60000,9.9031103e-17,1.8864605e-18
321.70000,9.9265890e-17,1.8864605e-18
321.80000,9.9499181e-17,1.8864605e-18
321.90000,9.9705007e-17,1.8864605e-18
322.00000,9.9843736e-17,1.8864605e-18
322.10000,9.9861312e-17,1.8864605e-18
322.20000,9.9698572e-17,1.8864605e-18
322.30000,9.9309318e-17,1.8864605e-18
322.40000,9.8680290e-17,1.8864605e-18
322.50000,9.7843105e-17,1.8864605e-18
322.60000,9.6870734e-17,1.8864605e-18
322.70000,9.5858768e-17,1.8864605e-18
322.80000,9.4900436e-17,1.8864605e-18
322.90000,9.4068082e-17,1.8864605e-18
323.00000,9.3409648e-17,1.8864605e-18
323.10000,9.2958841e-17,1.8864605e-18
323.20000,9.2748879e-17,1.8864605e-18
323.30000,9.2818032e-17,1.8864605e-18
323.40000,9.3201675e-17,1.8864605e-18
323.50000,9.3915491e-17,1.8864605e-18
323.60000,9.4940837e-17,1.8864605e-18
323.70000,9.6221991e-17,1.8864605e-18
323.80000,9.7677593e-17,1.8864605e-18
323.90000,9.9220540e-17,1.8864605e-18
324.00000,1.0077708e-16,1.8864605e-18
324.10000,1.0229842e-16,1.8864605e-18
324.20000,1.0376385e-16,1.8864605e-18
324.30000,1.0517841e-16,1.8864605e-18
324.40000,1.0656853e-16,1.8864605e-18
324.50000,1.0797554e-16,1.8864605e-18
324.60000,1.0944477e-16,1.8864605e-18
324.70000,1.1100884e-16,1.8864605e-18
324.80000,1.1266807e-16,1.8864605e-18
324.90000,1.1437526e-16,1.8864605e-18
325.00000,1.1603274e-16,1.8864605e-18
325.10000,1.1750536e-16,1.8864605e-18
325.20000,1.1864668e-16,1.8864605e-18
325.30000,1.1933041e-16,1.8864605e-18
325.40000,1.1947851e-16,1.8864605e-18
325.50000,1.1907909e-16,1.8864605e-18
325.60000,1.1819135e-16,1.8864605e-18
325.70000,1.1693762e-16,1.8864605e-18
325.80000,1.1548494e-16,1.8864605e-18
325.90000,1.1401970e-16,1.8864605e-18
326.00000,1.1271992e-16,1.8864605e-18
326.10000,1.1172933e-16,1.8864605e-18
326.20000,1.1113677e-16,1.8864605e-18
326.30000,1.1096363e-16,1.8864605e-18
326.40000,1.1116212e-16,1.8864605e-18
326.50000,1.1162743e-16,1.8864605e-18
326.60000,1.1222509e-16,1.8864605e-18
326.70000,1.1282985e-16,1.8864605e-18
326.80000,1.1336567e-16,1.8864605e-18
326.90000,1.1383138e-16,1.8864605e-18
327.00000,1.1429947e-16,1.8864605e-18
327.10000,1.1488522e-16,1.8864605e-18
327.20000,1.1569735e-16,1.8864605e-18
327.30000,1.1679058e-16,1.8864605e-18
327.40000,1.1813997e-16,1.8864605e-18
327.50000,1.1964613e-16,1.8864605e-18
327.60000,1.2116619e-16,1.8864605e-18
327.70000,1.2255469e-16,1.8864605e-18
327.80000,1.2369738e-16,1.8864605e-18
327.90000,1.2452730e-16,1.8864605e-18
328.00000,1.2502229e-16,1.8864605e-18
328.10000,1.2519110e-16,1.8864605e-18
328.20000,1.2505738e-16,1.8864605e-18
328.30000,1.2464955e-16,1.8864605e-18
328.40000,1.2399927e-16,1.8864605e-18
328.50000,1.2314688e-16,1.8864605e-18
328.60000,1.2214887e-16,1.8864605e-18
328.70000,1.2108161e-16,1.8864605e-18
328.80000,1.2003660e-16,1.8864605e-18
328.90000,1.1910683e-16,1.8864605e-18
329.00000,1.1836777e-16,1.8864605e-18
329.10000,1.1786020e-16,1.8864605e-18
329.20000,1.1758264e-16,1.8864605e-18
329.30000,1.1749722e-16,1.8864605e-18
329.40000,1.1754707e-16,1.8864605e-18
329.50000,1.1767692e-16,1.8864605e-18
329.60000,1.1784709e-16,1.8864605e-18
329.70000,1.1803509e-16,1.8864605e-18
329.80000,1.1822641e-16,1.8864605e-18
329.90000,1.1840293e-16,1.8864605e-18
330.00000,1.1853849e-16,1.8864605e-18
330.10000,1.1860614e-16,1.8864605e-18
330.20000,1.1859348e-16,1.8864605e-18
330.30000,1.1851690e-16,1.8864605e-18
330.40000,1.1842488e-16,1.8864605e-18
330.50000,1.1838610e-16,1.8864605e-18
330.60000,1.1846501e-16,1.8864605e-18
330.70000,1.1869360e-16,1.8864605e-18
330.80000,1.1904988e-16,1.8864605e-18
330.90000,1.1945183e-16,1.8864605e-18
331.00000,1.1977087e-16,1.8864605e-18
331.10000,1.1986249e-16,1.8864605e-18
331.20000,1.1960553e-16,1.8864605e-18
331.30000,1.1893731e-16,1.8864605e-18
331.40000,1.1787200e-16,1.8864605e-18
331.50000,1.1649567e-16,1.8864605e-18
331.60000,1.1494145e-16,1.8864605e-18
331.70000,1.1335718e-16,1.8864605e-18
331.80000,1.1188126e-16,1.8864605e-18
331.90000,1.1063620e-16,1.8864605e-18
332.00000,1.0973677e-16,1.8864605e-18
332.10000,1.0929922e-16,1.8864605e-18
332.20000,1.0943604e-16,1.8864605e-18
332.30000,1.1023020e-16,1.8864605e-18
332.40000,1.1169798e-16,1.8864605e-18
332.50000,1.1375972e-16,1.8864605e-18
332.60000,1.1623709e-16,1.8864605e-18
332.70000,1.1888244e-16,1.8864605e-18
332.80000,1.2143013e-16,1.8864605e-18
332.90000,1.2364987e-16,1.8864605e-18
333.00000,1.2538372e-16,1.8864605e-18
333.10000,1.2655832e-16,1.8864605e-18
333.20000,1.2717581e-16,1.8864605e-18
333.30000,1.2729360e-16,1.8864605e-18
333.40000,1.2700291e-16,1.8864605e-18
333.50000,1.2641094e-16,1.8864605e-18
333.60000,1.2562633e-16,1.8864605e-18
333.70000,1.2474526e-16,1.8864605e-18
333.80000,1.2383687e-16,1.8864605e-18
333.90000,1.2292997e-16,1.8864605e-18
334.00000,1.2200612e-16,1.8864605e-18
334.10000,1.2100449e-16,1.8864605e-18
334.20000,1.1984146e-16,1.8864605e-18
334.30000,1.1844317e-16,1.8864605e-18
334.40000,1.1678250e-16,1.8864605e-18
334.50000,1.1490804e-16,1.8864605e-18
334.60000,1.1295088e-16,1.8864605e-18
334.70000,1.1110021e-16,1.8864605e-18
334.80000,1.0954922e-16,1.8864605e-18
334.90000,1.0842566e-16,1.8864605e-18
335.00000,1.0773200e-16,1.8864605e-18
335.10000,1.0732220e-16,1.8864605e-18
335.20000,1.0693227e-16,1.8864605e-18
335.30000,1.0626273e-16,1.8864605e-18
335.40000,1.0508914e-16,1.8864605e-18
335.50000,1.0336121e-16,1.8864605e-18
335.60000,1.0124950e-16,1.8864605e-18
335.70000,9.9114214e-17,1.8864605e-18
335.80000,9.7399161e-17,1.8864605e-18
335.90000,9.6484526e-17,1.8864605e-18
336.00000,9.6552440e-17,1.8864605e-18
336.10000,9.7518160e-17,1.8864605e-18
336.20000,9.9056170e-17,1.8864605e-18
336.30000,1.0071317e-16,1.8864605e-18
336.40000,1.0206495e-16,1.8864605e-18
336.50000,1.0285715e-16,1.8864605e-18
336.60000,1.0307792e-16,1.8864605e-18
336.70000,1.0293955e-16,1.8864605e-18
336.80000,1.0278232e-16,1.8864605e-18
336.90000,1.0294220e-16,1.8864605e-18
337.00000,1.0363319e-16,1.8864605e-18
337.10000,1.0488453e-16,1.8864605e-18
337.20000,1.0654844e-16,1.8864605e-18
337.30000,1.0836742e-16,1.8864605e-18
337.40000,1.1007099e-16,1.8864605e-18
337.50000,1.1146553e-16,1.8864605e-18
337.60000,1.1248772e-16,1.8864605e-18
337.70000,1.1320748e-16,1.8864605e-18
337.80000,1.1378449e-16,1.8864605e-18
337.90000,1.1439741e-16,1.8864605e-18
338.00000,1.1517193e-16,1.8864605e-18
338.10000,1.1613193e-16,1.8864605e-18
338.20000,1.1718779e-16,1.8864605e-18
338.30000,1.1816286e-16,1.8864605e-18
338.40000,1.1884721e-16,1.8864605e-18
338.50000,1.1906203e-16,1.8864605e-18
338.60000,1.1871756e-16,1.8864605e-18
338.70000,1.1785006e-16,1.8864605e-18
338.80000,1.1662843e-16,1.8864605e-18
338.90000,1.1532586e-16,1.8864605e-18
339.00000,1.1426013e-16,1.8864605e-18
339.10000,1.1371504e-16,1.8864605e-18
339.20000,1.1386479e-16,1.8864605e-18
339.30000,1.1472534e-16,1.8864605e-18
339.40000,1.1615070e-16,1.8864605e-18
339.50000,1.1787731e-16,1.8864605e-18
339.60000,1.1960169e-16,1.8864605e-18
339.70000,1.2106478e-16,1.8864605e-18
339.80000,1.2211418e-16,1.8864605e-18
339.90000,1.2272570e-16,1.8864605e-18
340.00000,1.2298201e-16,1.8864605e-18
340.10000,1.2302243e-16,1.8864605e-18
340.20000,1.2298644e-16,1.8864605e-18
340.30000,1.2297138e-16,1.8864605e-18
340.40000,1.2301497e-16,1.8864605e-18
340.50000,1.2310017e-16,1.8864605e-18
340.60000,1.2317214e-16,1.8864605e-18
340.70000,1.2315659e-16,1.8864605e-18
340.80000,1.2297480e-16,1.8864605e-18
340.90000,1.2255734e-16,1.8864605e-18
341.00000,1.2186020e-16,1.8864605e-18
341.10000,1.2088324e-16,1.8864605e-18
341.20000,1.1968428e-16,1.8864605e-18
341.30000,1.1837862e-16,1.8864605e-18
341.40000,1.1711753e-16,1.8864605e-18
341.50000,1.1604913e-16,1.8864605e-18
341.60000,1.1527528e-16,1.8864605e-18
341.70000,1.1482287e-16,1.8864605e-18
341.80000,1.1464296e-16,1.8864605e-18
341.90000,1.1463864e-16,1.8864605e-18
342.00000,1.1470875e-16,1.8864605e-18
342.10000,1.1478688e-16,1.8864605e-18
342.20000,1.1485774e-16,1.8864605e-18
342.30000,1.1494460e-16,1.8864605e-18
342.40000,1.1507680e-16,1.8864605e-18
342.50000,1.1525629e-16,1.8864605e-18
342.60000,1.1544241e-16,1.8864605e-18
342.70000,1.1556359e-16,1.8864605e-18
342.80000,1.1554935e-16,1.8864605e-18
342.90000,1.1536389e-16,1.8864605e-18
343.00000,1.1502113e-16,1.8864605e-18
343.10000,1.1457110e-16,1.8864605e-18
343.20000,1.1406459e-16,1.8864605e-18
343.30000,1.1351736e-16,1.8864605e-18
343.40000,1.1289769e-16,1.8864605e-18
343.50000,1.1215003e-16,1.8864605e-18
343.60000,1.1124706e-16,1.8864605e-18
343.70000,1.1024435e-16,1.8864605e-18
343.80000,1.0930645e-16,1.8864605e-18
343.90000,1.0868439e-16,1.8864605e-18
344.00000,1.0864711e-16,1.8864605e-18
344.10000,1.0939166e-16,1.8864605e-18
344.20000,1.1096772e-16,1.8864605e-18
344.30000,1.1324561e-16,1.8864605e-18
344.40000,1.1593899e-16,1.8864605e-18
344.50000,1.1867235e-16,1.8864605e-18
344.60000,1.2106963e-16,1.8864605e-18
344.70000,1.2283678e-16,1.8864605e-18
344.80000,1.2381729e-16,1.8864605e-18
344.90000,1.2400938e-16,1.8864605e-18
345.00000,1.2354420e-16,1.8864605e-18
345.10000,1.2263427e-16,1.8864605e-18
345.20000,1.2150903e-16,1.8864605e-18
345.30000,1.2035809e-16,1.8864605e-18
345.40000,1.1929945e-16,1.8864605e-18
345.50000,1.1837935e-16,1.8864605e-18
345.60000,1.1759638e-16,1.8864605e-18
345.70000,1.1693241e-16,1.8864605e-18
345.80000,1.1637273e-16,1.8864605e-18
345.90000,1.1590748e-16,1.8864605e-18
346.00000,1.1551989e-16,1.8864605e-18
346.10000,1.1517545e-16,1.8864605e-18
346.20000,1.1482389e-16,1.8864605e-18
346.30000,1.1441579e-16,1.8864605e-18
346.40000,1.1392431e-16,1.8864605e-18
346.50000,1.1335883e-16,1.8864605e-18
346.60000,1.1276279e-16,1.8864605e-18
346.70000,1.1219949e-16,1.8864605e-18
346.80000,1.1173734e-16,1.8864605e-18
346.90000,1.1144531e-16,1.8864605e-18
347.00000,1.1139933e-16,1.8864605e-18
347.10000,1.1168956e-16,1.8864605e-18
347.20000,1.1241472e-16,1.8864605e-18
347.30000,1.1365635e-16,1.8864605e-18
347.40000,1.1544003e-16,1.8864605e-18
347.50000,1.1770165e-16,1.8864605e-18
347.60000,1.2027861e-16,1.8864605e-18
347.70000,1.2293512e-16,1.8864605e-18
347.80000,1.2541461e-16,1.8864605e-18
347.90000,1.2749890e-16,1.8864605e-18
348.00000,1.2905089e-16,1.8864605e-18
348.10000,1.3002656e-16,1.8864605e-18
348.20000,1.3045718e-16,1.8864605e-18
348.30000,1.3041585e-16,1.8864605e-18
348.40000,1.2998730e-16,1.8864605e-18
348.50000,1.2925390e-16,1.8864605e-18
348.60000,1.2829944e-16,1.8864605e-18
348.70000,1.2722160e-16,1.8864605e-18
348.80000,1.2614030e-16,1.8864605e-18
348.90000,1.2519310e-16,1.8864605e-18
349.00000,1.2451725e-16,1.8864605e-18
349.10000,1.2422568e-16,1.8864605e-18
349.20000,1.2438675e-16,1.8864605e-18
349.30000,1.2501456e-16,1.8864605e-18
349.40000,1.2607045e-16,1.8864605e-18
349.50000,1.2747118e-16,1.8864605e-18
349.60000,1.2909793e-16,1.8864605e-18
349.70000,1.3080359e-16,1.8864605e-18
349.80000,1.3242052e-16,1.8864605e-18
349.90000,1.3377416e-16,1.8864605e-18
350.00000,1.3470540e-16,1.8864605e-18
350.10000,1.3509937e-16,1.8864605e-18
350.20000,1.3491145e-16,1.8864605e-18
350.30000,1.3417886e-16,1.8864605e-18
350.40000,1.3301018e-16,1.8864605e-18
350.50000,1.3155439e-16,1.8864605e-18
350.60000,1.2996130e-16,1.8864605e-18
350.70000,1.2835103e-16,1.8864605e-18
350.80000,1.2680644e-16,1.8864605e-18
350.90000,1.2539074e-16,1.8864605e-18
351.00000,1.2417736e-16,1.8864605e-18
351.10000,1.2327014e-16,1.8864605e-18
351.20000,1.2279495e-16,1.8864605e-18
351.30000,1.2285919e-16,1.8864605e-18
351.40000,1.2349448e-16,1.8864605e-18
351.50000,1.2461051e-16,1.8864605e-18
351.60000,1.2598525e-16,1.8864605e-18
351.70000,1.2730180e-16,1.8864605e-18
351.80000,1.2822200e-16,1.8864605e-18
351.90000,1.2847275e-16,1.8864605e-18
352.00000,1.2791778e-16,1.8864605e-18
352.10000,1.2659434e-16,1.8864605e-18
352.20000,1.2470607e-16,1.8864605e-18
352.30000,1.2257518e-16,1.8864605e-18
352.40000,1.2056761e-16,1.8864605e-18
