wave,flux,fluxerr
300.00000,3.9991189e-16,1.0848146e-16
300.10000,3.9386895e-16,1.0848146e-16
300.20000,3.8028975e-16,1.0848146e-16
300.30000,3.6194493e-16,1.0848146e-16
300.40000,3.4227034e-16,1.0848146e-16
300.50000,3.2453130e-16,1.0848146e-16
300.60000,3.1116280e-16,1.0848146e-16
300.70000,3.0349661e-16,1.0848146e-16
300.80000,3.0188361e-16,1.0848146e-16
300.90000,3.0603386e-16,1.0848146e-16
301.00000,3.1532739e-16,1.0848146e-16
301.10000,3.2892346e-16,1.0848146e-16
301.20000,3.4565816e-16,1.0848146e-16
301.30000,3.6387046e-16,1.0848146e-16
301.40000,3.8135393e-16,1.0848146e-16
301.50000,3.9557393e-16,1.0848146e-16
301.60000,4.0415851e-16,1.0848146e-16
301.70000,4.0553126e-16,1.0848146e-16
301.80000,3.9946634e-16,1.0848146e-16
301.90000,3.8734098e-16,1.0848146e-16
302.00000,3.7194348e-16,1.0848146e-16
302.10000,3.5684221e-16,1.0848146e-16
302.20000,3.4548681e-16,1.0848146e-16
302.30000,3.4033065e-16,1.0848146e-16
302.40000,3.4227613e-16,1.0848146e-16
302.50000,3.5063167e-16,1.0848146e-16
302.60000,3.6357134e-16,1.0848146e-16
302.70000,3.7889272e-16,1.0848146e-16
302.80000,3.9476471e-16,1.0848146e-16
302.90000,4.1018961e-16,1.0848146e-16
303.00000,4.2504686e-16,1.0848146e-16
303.10000,4.3976619e-16,1.0848146e-16
303.20000,4.5481466e-16,1.0848146e-16
303.30000,4.7022879e-16,1.0848146e-16
303.40000,4.8537786e-16,1.0848146e-16
303.50000,4.9903698e-16,1.0848146e-16
303.60000,5.0972466e-16,1.0848146e-16
303.70000,5.1616009e-16,1.0848146e-16
303.80000,5.1765848e-16,1.0848146e-16
303.90000,5.1432023e-16,1.0848146e-16
304.00000,5.0696819e-16,1.0848146e-16
304.10000,4.9689746e-16,1.0848146e-16
304.20000,4.8557090e-16,1.0848146e-16
304.30000,4.7438791e-16,1.0848146e-16
304.40000,4.6458654e-16,1.0848146e-16
304.50000,4.5725368e-16,1.0848146e-16
304.60000,4.5336424e-16,1.0848146e-16
304.70000,4.5376836e-16,1.0848146e-16
304.80000,4.5908633e-16,1.0848146e-16
304.90000,4.6952552e-16,1.0848146e-16
305.00000,4.8467723e-16,1.0848146e-16
305.10000,5.0337259e-16,1.0848146e-16
305.20000,5.2367504e-16,1.0848146e-16
305.30000,5.4306440e-16,1.0848146e-16
305.40000,5.5882477e-16,1.0848146e-16
305.50000,5.6858904e-16,1.0848146e-16
305.60000,5.7092554e-16,1.0848146e-16
305.70000,5.6580020e-16,1.0848146e-16
305.80000,5.5473956e-16,1.0848146e-16
305.90000,5.4058106e-16,1.0848146e-16
306.00000,5.2682678e-16,1.0848146e-16
306.10000,5.1677415e-16,1.0848146e-16
306.20000,5.1271128e-16,1.0848146e-16
306.30000,5.1546414e-16,1.0848146e-16
306.40000,5.2444660e-16,1.0848146e-16
306.50000,5.3814688e-16,1.0848146e-16
306.60000,5.5479360e-16,1.0848146e-16
306.70000,5.7288774e-16,1.0848146e-16
306.80000,5.9139445e-16,1.0848146e-16
306.90000,6.0959697e-16,1.0848146e-16
307.00000,6.2679906e-16,1.0848146e-16
307.10000,6.4211605e-16,1.0848146e-16
307.20000,6.5450106e-16,1.0848146e-16
307.30000,6.6298433e-16,1.0848146e-16
307.40000,6.6697554e-16,1.0848146e-16
307.50000,6.6646401e-16,1.0848146e-16
307.60000,6.6203904e-16,1.0848146e-16
307.70000,6.5476586e-16,1.0848146e-16
307.80000,6.4600946e-16,1.0848146e-16
307.90000,6.3727139e-16,1.0848146e-16
308.00000,6.3003267e-16,1.0848146e-16
308.10000,6.2554832e-16,1.0848146e-16
308.20000,6.2456243e-16,1.0848146e-16
308.30000,6.2699697e-16,1.0848146e-16
308.40000,6.3175342e-16,1.0848146e-16
308.50000,6.3678517e-16,1.0848146e-16
308.60000,6.3951817e-16,1.0848146e-16
308.70000,6.3754450e-16,1.0848146e-16
308.80000,6.2936381e-16,1.0848146e-16
308.90000,6.1488598e-16,1.0848146e-16
309.00000,5.9547847e-16,1.0848146e-16
309.10000,5.7352043e-16,1.0848146e-16
309.20000,5.5163148e-16,1.0848146e-16
309.30000,5.3187845e-16,1.0848146e-16
309.40000,5.1526759e-16,1.0848146e-16
309.50000,5.0170323e-16,1.0848146e-16
309.60000,4.9039795e-16,1.0848146e-16
309.70000,4.8053762e-16,1.0848146e-16
309.80000,4.7191091e-16,1.0848146e-16
309.90000,4.6524167e-16,1.0848146e-16
310.00000,4.6209541e-16,1.0848146e-16
310.10000,4.6441103e-16,1.0848146e-16
310.20000,4.7385531e-16,1.0848146e-16
310.30000,4.9125145e-16,1.0848146e-16
310.40000,5.1627512e-16,1.0848146e-16
310.50000,5.4748182e-16,1.0848146e-16
310.60000,5.8259636e-16,1.0848146e-16
310.70000,6.1892200e-16,1.0848146e-16
310.80000,6.5373498e-16,1.0848146e-16
310.90000,6.8459117e-16,1.0848146e-16
311.00000,7.0953435e-16,1.0848146e-16
311.10000,7.2722064e-16,1.0848146e-16
311.20000,7.3696134e-16,1.0848146e-16
311.30000,7.3866773e-16,1.0848146e-16
311.40000,7.3269141e-16,1.0848146e-16
311.50000,7.1959983e-16,1.0848146e-16
311.60000,6.9998265e-16,1.0848146e-16
311.70000,6.7440584e-16,1.0848146e-16
311.80000,6.4358582e-16,1.0848146e-16
311.90000,6.0875039e-16,1.0848146e-16
312.00000,5.7203098e-16,1.0848146e-16
312.10000,5.3665807e-16,1.0848146e-16
312.20000,5.0675858e-16,1.0848146e-16
312.30000,4.8668752e-16,1.0848146e-16
312.40000,4.8001835e-16,1.0848146e-16
312.50000,4.8848552e-16,1.0848146e-16
312.60000,5.1124373e-16,1.0848146e-16
312.70000,5.4474371e-16,1.0848146e-16
312.80000,5.8334412e-16,1.0848146e-16
312.90000,6.2054229e-16,1.0848146e-16
313.00000,6.5049462e-16,1.0848146e-16
313.10000,6.6938331e-16,1.0848146e-16
313.20000,6.7621471e-16,1.0848146e-16
313.30000,6.7280718e-16,1.0848146e-16
313.40000,6.6299122e-16,1.0848146e-16
313.50000,6.5130772e-16,1.0848146e-16
313.60000,6.4164887e-16,1.0848146e-16
313.70000,6.3627435e-16,1.0848146e-16
313.80000,6.3546228e-16,1.0848146e-16
313.90000,6.3780396e-16,1.0848146e-16
314.00000,6.4093906e-16,1.0848146e-16
314.10000,6.4243747e-16,1.0848146e-16
314.20000,6.4057298e-16,1.0848146e-16
314.30000,6.3484163e-16,1.0848146e-16
314.40000,6.2617226e-16,1.0848146e-16
314.50000,6.1681773e-16,1.0848146e-16
314.60000,6.0992179e-16,1.0848146e-16
314.70000,6.0878269e-16,1.0848146e-16
314.80000,6.1591802e-16,1.0848146e-16
314.90000,6.3215292e-16,1.0848146e-16
315.00000,6.5603579e-16,1.0848146e-16
315.10000,6.8385474e-16,1.0848146e-16
315.20000,7.1035882e-16,1.0848146e-16
315.30000,7.3003271e-16,1.0848146e-16
315.40000,7.3854240e-16,1.0848146e-16
315.50000,7.3387402e-16,1.0848146e-16
315.60000,7.1678403e-16,1.0848146e-16
315.70000,6.9042964e-16,1.0848146e-16
315.80000,6.5934701e-16,1.0848146e-16
315.90000,6.2816307e-16,1.0848146e-16
316.00000,6.0048235e-16,1.0848146e-16
316.10000,5.7827710e-16,1.0848146e-16
316.20000,5.6189178e-16,1.0848146e-16
316.30000,5.5055040e-16,1.0848146e-16
316.40000,5.4310785e-16,1.0848146e-16
316.50000,5.3875359e-16,1.0848146e-16
316.60000,5.3744424e-16,1.0848146e-16
316.70000,5.3996463e-16,1.0848146e-16
316.80000,5.4764212e-16,1.0848146e-16
316.90000,5.6183115e-16,1.0848146e-16
317.00000,5.8333088e-16,1.0848146e-16
317.10000,6.1190380e-16,1.0848146e-16
317.20000,6.4603224e-16,1.0848146e-16
317.30000,6.8298770e-16,1.0848146e-16
317.40000,7.1920379e-16,1.0848146e-16
317.50000,7.5085744e-16,1.0848146e-16
317.60000,7.7450530e-16,1.0848146e-16
317.70000,7.8761517e-16,1.0848146e-16
317.80000,7.8887974e-16,1.0848146e-16
317.90000,7.7828273e-16,1.0848146e-16
318.00000,7.5697049e-16,1.0848146e-16
318.10000,7.2702992e-16,1.0848146e-16
318.20000,6.9126149e-16,1.0848146e-16
318.30000,6.5297326e-16,1.0848146e-16
318.40000,6.1574640e-16,1.0848146e-16
318.50000,5.8309220e-16,1.0848146e-16
318.60000,5.5796743e-16,1.0848146e-16
318.70000,5.4222102e-16,1.0848146e-16
318.80000,5.3614498e-16,1.0848146e-16
318.90000,5.3832681e-16,1.0848146e-16
319.00000,5.4592627e-16,1.0848146e-16
319.10000,5.5535903e-16,1.0848146e-16
319.20000,5.6322992e-16,1.0848146e-16
319.30000,5.6727172e-16,1.0848146e-16
319.40000,5.6703081e-16,1.0848146e-16
319.50000,5.6409366e-16,1.0848146e-16
319.60000,5.6175393e-16,1.0848146e-16
319.70000,5.6416629e-16,1.0848146e-16
319.80000,5.7519091e-16,1.0848146e-16
319.90000,5.9725197e-16,1.0848146e-16
320.00000,6.3055552e-16,1.0848146e-16
320.10000,6.7290881e-16,1.0848146e-16
320.20000,7.2018559e-16,1.0848146e-16
320.30000,7.6727011e-16,1.0848146e-16
320.40000,8.0917754e-16,1.0848146e-16
320.50000,8.4203375e-16,1.0848146e-16
320.60000,8.6368671e-16,1.0848146e-16
320.70000,8.7385765e-16,1.0848146e-16
320.80000,8.7386863e-16,1.0848146e-16
320.90000,8.6607766e-16,1.0848146e-16
321.00000,8.5320641e-16,1.0848146e-16
321.10000,8.3775516e-16,1.0848146e-16
321.20000,8.2165302e-16,1.0848146e-16
321.30000,8.0619274e-16,1.0848146e-16
321.40000,7.9217873e-16,1.0848146e-16
321.50000,7.8013375e-16,1.0848146e-16
321.60000,7.7041029e-16,1.0848146e-16
321.70000,7.6314056e-16,1.0848146e-16
321.80000,7.5808008e-16,1.0848146e-16
321.90000,7.5447940e-16,1.0848146e-16
322.00000,7.5110774e-16,1.0848146e-16
322.10000,7.4646223e-16,1.0848146e-16
322.20000,7.3909015e-16,1.0848146e-16
322.30000,7.2789642e-16,1.0848146e-16
322.40000,7.1233560e-16,1.0848146e-16
322.50000,6.9246648e-16,1.0848146e-16
322.60000,6.6891708e-16,1.0848146e-16
322.70000,6.4281904e-16,1.0848146e-16
322.80000,6.1572561e-16,1.0848146e-16
322.90000,5.8947516e-16,1.0848146e-16
323.00000,5.6595835e-16,1.0848146e-16
323.10000,5.4680695e-16,1.0848146e-16
323.20000,5.3310307e-16,1.0848146e-16
323.30000,5.2524019e-16,1.0848146e-16
323.40000,5.2301113e-16,1.0848146e-16
323.50000,5.2587812e-16,1.0848146e-16
323.60000,5.3327748e-16,1.0848146e-16
323.70000,5.4480075e-16,1.0848146e-16
323.80000,5.6018696e-16,1.0848146e-16
323.90000,5.7919036e-16,1.0848146e-16
324.00000,6.0146126e-16,1.0848146e-16
324.10000,6.2654254e-16,1.0848146e-16
324.20000,6.5397527e-16,1.0848146e-16
324.30000,6.8341282e-16,1.0848146e-16
324.40000,7.1463619e-16,1.0848146e-16
324.50000,7.4744540e-16,1.0848146e-16
324.60000,7.8150228e-16,1.0848146e-16
324.70000,8.1623912e-16,1.0848146e-16
324.80000,8.5089971e-16,1.0848146e-16
324.90000,8.8468763e-16,1.0848146e-16
325.00000,9.1693270e-16,1.0848146e-16
325.10000,9.4718934e-16,1.0848146e-16
325.20000,9.7523248e-16,1.0848146e-16
325.30000,1.0009682e-15,1.0848146e-16
325.40000,1.0242957e-15,1.0848146e-16
325.50000,1.0449576e-15,1.0848146e-16
325.60000,1.0624175e-15,1.0848146e-16
325.70000,1.0758296e-15,1.0848146e-16
325.80000,1.0841652e-15,1.0848146e-16
325.90000,1.0865209e-15,1.0848146e-16
326.00000,1.0825374e-15,1.0848146e-16
326.10000,1.0727684e-15,1.0848146e-16
326.20000,1.0588144e-15,1.0848146e-16
326.30000,1.0431151e-15,1.0848146e-16
326.40000,1.0284315e-15,1.0848146e-16
326.50000,1.0171800e-15,1.0848146e-16
326.60000,1.0108367e-15,1.0848146e-16
326.70000,1.0096076e-15,1.0848146e-16
326.80000,1.0124673e-15,1.0848146e-16
326.90000,1.0175598e-15,1.0848146e-16
327.00000,1.0228430e-15,1.0848146e-16
327.10000,1.0267722e-15,1.0848146e-16
327.20000,1.0287865e-15,1.0848146e-16
327.30000,1.0294160e-15,1.0848146e-16
327.40000,1.0299705e-15,1.0848146e-16
327.50000,1.0319469e-15,1.0848146e-16
327.60000,1.0364163e-15,1.0848146e-16
327.70000,1.0436439e-15,1.0848146e-16
327.80000,1.0530603e-15,1.0848146e-16
327.90000,1.0635252e-15,1.0848146e-16
328.00000,1.0737075e-15,1.0848146e-16
328.10000,1.0824083e-15,1.0848146e-16
328.20000,1.0887450e-15,1.0848146e-16
328.30000,1.0922141e-15,1.0848146e-16
328.40000,1.0926869e-15,1.0848146e-16
328.50000,1.0903702e-15,1.0848146e-16
328.60000,1.0857286e-15,1.0848146e-16
328.70000,1.0793648e-15,1.0848146e-16
328.80000,1.0718928e-15,1.0848146e-16
328.90000,1.0638621e-15,1.0848146e-16
329.00000,1.0557731e-15,1.0848146e-16
329.10000,1.0481551e-15,1.0848146e-16
329.20000,1.0416176e-15,1.0848146e-16
329.30000,1.0367918e-15,1.0848146e-16
329.40000,1.0341487e-15,1.0848146e-16
329.50000,1.0337792e-15,1.0848146e-16
329.60000,1.0352704e-15,1.0848146e-16
329.70000,1.0377647e-15,1.0848146e-16
329.80000,1.0401872e-15,1.0848146e-16
329.90000,1.0415178e-15,1.0848146e-16
330.00000,1.0409695e-15,1.0848146e-16
330.10000,1.0380038e-15,1.0848146e-16
330.20000,1.0322278e-15,1.0848146e-16
330.30000,1.0232959e-15,1.0848146e-16
330.40000,1.0109321e-15,1.0848146e-16
330.50000,9.9510614e-16,1.0848146e-16
330.60000,9.7628839e-16,1.0848146e-16
330.70000,9.5563662e-16,1.0848146e-16
330.80000,9.3496708e-16,1.0848146e-16
330.90000,9.1643511e-16,1.0848146e-16
331.00000,9.0196997e-16,1.0848146e-16
331.10000,8.9263104e-16,1.0848146e-16
331.20000,8.8812699e-16,1.0848146e-16
331.30000,8.8672337e-16,1.0848146e-16
331.40000,8.8564257e-16,1.0848146e-16
331.50000,8.8186827e-16,1.0848146e-16
331.60000,8.7308601e-16,1.0848146e-16
331.70000,8.5841389e-16,1.0848146e-16
331.80000,8.3865533e-16,1.0848146e-16
331.90000,8.1601201e-16,1.0848146e-16
332.00000,7.9343084e-16,1.0848146e-16
332.10000,7.7390151e-16,1.0848146e-16
332.20000,7.5999355e-16,1.0848146e-16
332.30000,7.5374043e-16,1.0848146e-16
332.40000,7.5674793e-16,1.0848146e-16
332.50000,7.7026733e-16,1.0848146e-16
332.60000,7.9501789e-16,1.0848146e-16
332.70000,8.3074615e-16,1.0848146e-16
332.80000,8.7574090e-16,1.0848146e-16
332.90000,9.2662610e-16,1.0848146e-16
333.00000,9.7865545e-16,1.0848146e-16
333.10000,1.0264881e-15,1.0848146e-16
333.20000,1.0651881e-15,1.0848146e-16
333.30000,1.0911000e-15,1.0848146e-16
333.40000,1.1023414e-15,1.0848146e-16
333.50000,1.0988448e-15,1.0848146e-16
333.60000,1.0820499e-15,1.0848146e-16
333.70000,1.0544155e-15,1.0848146e-16
333.80000,1.0188909e-15,1.0848146e-16
333.90000,9.7843078e-16,1.0848146e-16
334.00000,9.3559930e-16,1.0848146e-16
334.10000,8.9230733e-16,1.0848146e-16
334.20000,8.4972800e-16,1.0848146e-16
334.30000,8.0840489e-16,1.0848146e-16
334.40000,7.6850597e-16,1.0848146e-16
334.50000,7.3012054e-16,1.0848146e-16
334.60000,6.9348666e-16,1.0848146e-16
334.70000,6.5908518e-16,1.0848146e-16
334.80000,6.2761058e-16,1.0848146e-16
334.90000,5.9987567e-16,1.0848146e-16
335.00000,5.7669808e-16,1.0848146e-16
335.10000,5.5876905e-16,1.0848146e-16
335.20000,5.4647478e-16,1.0848146e-16
335.30000,5.3967008e-16,1.0848146e-16
335.40000,5.3748611e-16,1.0848146e-16
335.50000,5.3832443e-16,1.0848146e-16
335.60000,5.4017348e-16,1.0848146e-16
335.70000,5.4125249e-16,1.0848146e-16
335.80000,5.4079124e-16,1.0848146e-16
335.90000,5.3959958e-16,1.0848146e-16
336.00000,5.4007610e-16,1.0848146e-16
336.10000,5.4549077e-16,1.0848146e-16
336.20000,5.5869173e-16,1.0848146e-16
336.30000,5.8069043e-16,1.0848146e-16
336.40000,6.0971452e-16,1.0848146e-16
336.50000,6.4119506e-16,1.0848146e-16
336.60000,6.6880728e-16,1.0848146e-16
336.70000,6.8625933e-16,1.0848146e-16
336.80000,6.8921282e-16,1.0848146e-16
336.90000,6.7665896e-16,1.0848146e-16
337.00000,6.5128303e-16,1.0848146e-16
337.10000,6.1872812e-16,1.0848146e-16
337.20000,5.8605323e-16,1.0848146e-16
337.30000,5.5992452e-16,1.0848146e-16
337.40000,5.4510809e-16,1.0848146e-16
337.50000,5.4366548e-16,1.0848146e-16
337.60000,5.5497565e-16,1.0848146e-16
337.70000,5.7643213e-16,1.0848146e-16
337.80000,6.0448636e-16,1.0848146e-16
337.90000,6.3566847e-16,1.0848146e-16
338.00000,6.6730287e-16,1.0848146e-16
338.10000,6.9779237e-16,1.0848146e-16
338.20000,7.2650404e-16,1.0848146e-16
338.30000,7.5340115e-16,1.0848146e-16
338.40000,7.7860319e-16,1.0848146e-16
338.50000,8.0202707e-16,1.0848146e-16
338.60000,8.2319856e-16,1.0848146e-16
338.70000,8.4125832e-16,1.0848146e-16
338.80000,8.5514617e-16,1.0848146e-16
338.90000,8.6392575e-16,1.0848146e-16
339.00000,8.6719017e-16,1.0848146e-16
339.10000,8.6545027e-16,1.0848146e-16
339.20000,8.6036649e-16,1.0848146e-16
339.30000,8.5468318e-16,1.0848146e-16
339.40000,8.5179475e-16,1.0848146e-16
339.50000,8.5500840e-16,1.0848146e-16
339.60000,8.6670578e-16,1.0848146e-16
339.70000,8.8767103e-16,1.0848146e-16
339.80000,9.1680384e-16,1.0848146e-16
339.90000,9.5129874e-16,1.0848146e-16
340.00000,9.8721756e-16,1.0848146e-16
340.10000,1.0202770e-15,1.0848146e-16
340.20000,1.0466471e-15,1.0848146e-16
340.30000,1.0635939e-15,1.0848146e-16
340.40000,1.0698613e-15,1.0848146e-16
340.50000,1.0657537e-15,1.0848146e-16
340.60000,1.0529280e-15,1.0848146e-16
340.70000,1.0339438e-15,1.0848146e-16
340.80000,1.0116548e-15,1.0848146e-16
340.90000,9.8856249e-16,1.0848146e-16
341.00000,9.6629160e-16,1.0848146e-16
341.10000,9.4535607e-16,1.0848146e-16
341.20000,9.2533278e-16,1.0848146e-16
341.30000,9.0542972e-16,1.0848146e-16
341.40000,8.8525628e-16,1.0848146e-16
341.50000,8.6546146e-16,1.0848146e-16
341.60000,8.4789996e-16,1.0848146e-16
341.70000,8.3515941e-16,1.0848146e-16
341.80000,8.2958071e-16,1.0848146e-16
341.90000,8.3218074e-16,1.0848146e-16
342.00000,8.4198771e-16,1.0848146e-16
342.10000,8.5614873e-16,1.0848146e-16
342.20000,8.7082647e-16,1.0848146e-16
342.30000,8.8253246e-16,1.0848146e-16
342.40000,8.8933164e-16,1.0848146e-16
342.50000,8.9140071e-16,1.0848146e-16
342.60000,8.9070800e-16,1.0848146e-16
342.70000,8.8997021e-16,1.0848146e-16
342.80000,8.9135440e-16,1.0848146e-16
342.90000,8.9549099e-16,1.0848146e-16
343.00000,9.0120442e-16,1.0848146e-16
343.10000,9.0602954e-16,1.0848146e-16
343.20000,9.0722481e-16,1.0848146e-16
343.30000,9.0278874e-16,1.0848146e-16
343.40000,8.9202928e-16,1.0848146e-16
343.50000,8.7549848e-16,1.0848146e-16
343.60000,8.5444078e-16,1.0848146e-16
343.70000,8.3013661e-16,1.0848146e-16
343.80000,8.0353282e-16,1.0848146e-16
343.90000,7.7534821e-16,1.0848146e-16
344.00000,7.4654870e-16,1.0848146e-16
344.10000,7.1886876e-16,1.0848146e-16
344.20000,6.9502656e-16,1.0848146e-16
344.30000,6.7843991e-16,1.0848146e-16
344.40000,6.7249934e-16,1.0848146e-16
344.50000,6.7965800e-16,1.0848146e-16
344.60000,7.0066501e-16,1.0848146e-16
344.70000,7.3419395e-16,1.0848146e-16
344.80000,7.7696536e-16,1.0848146e-16
344.90000,8.2431030e-16,1.0848146e-16
345.00000,8.7101992e-16,1.0848146e-16
345.10000,9.1227749e-16,1.0848146e-16
345.20000,9.4446241e-16,1.0848146e-16
345.30000,9.6564611e-16,1.0848146e-16
345.40000,9.7567585e-16,1.0848146e-16
345.50000,9.7586142e-16,1.0848146e-16
345.60000,9.6840424e-16,1.0848146e-16
345.70000,9.5578075e-16,1.0848146e-16
345.80000,9.4027051e-16,1.0848146e-16
345.90000,9.2371677e-16,1.0848146e-16
346.00000,9.0748671e-16,1.0848146e-16
346.10000,8.9253244e-16,1.0848146e-16
346.20000,8.7946792e-16,1.0848146e-16
346.30000,8.6863791e-16,1.0848146e-16
346.40000,8.6020104e-16,1.0848146e-16
346.50000,8.5423891e-16,1.0848146e-16
346.60000,8.5085169e-16,1.0848146e-16
346.70000,8.5016115e-16,1.0848146e-16
346.80000,8.5216489e-16,1.0848146e-16
346.90000,8.5647685e-16,1.0848146e-16
347.00000,8.6209995e-16,1.0848146e-16
347.10000,8.6742865e-16,1.0848146e-16
347.20000,8.7061512e-16,1.0848146e-16
347.30000,8.7025900e-16,1.0848146e-16
347.40000,8.6617769e-16,1.0848146e-16
347.50000,8.5990087e-16,1.0848146e-16
347.60000,8.5459185e-16,1.0848146e-16
347.70000,8.5432530e-16,1.0848146e-16
347.80000,8.6293776e-16,1.0848146e-16
347.90000,8.8286810e-16,1.0848146e-16
348.00000,9.1441410e-16,1.0848146e-16
348.10000,9.5564664e-16,1.0848146e-16
348.20000,1.0029433e-15,1.0848146e-16
348.30000,1.0518675e-15,1.0848146e-16
348.40000,1.0980374e-15,1.0848146e-16
348.50000,1.1377157e-15,1.0848146e-16
348.60000,1.1680531e-15,1.0848146e-16
348.70000,1.1871073e-15,1.0848146e-16
348.80000,1.1938424e-15,1.0848146e-16
348.90000,1.1882517e-15,1.0848146e-16
349.00000,1.1715888e-15,1.0848146e-16
349.10000,1.1465426e-15,1.0848146e-16
349.20000,1.1171467e-15,1.0848146e-16
349.30000,1.0883055e-15,1.0848146e-16
349.40000,1.0649964e-15,1.0848146e-16
349.50000,1.0513642e-15,1.0848146e-16
349.60000,1.0499803e-15,1.0848146e-16
349.70000,1.0614647e-15,1.0848146e-16
349.80000,1.0845237e-15,1.0848146e-16
349.90000,1.1163189e-15,1.0848146e-16
350.00000,1.1530225e-15,1.0848146e-16
350.10000,1.1904378e-15,1.0848146e-16
350.20000,1.2246136e-15,1.0848146e-16
350.30000,1.2524052e-15,1.0848146e-16
350.40000,1.2719094e-15,1.0848146e-16
350.50000,1.2826633e-15,1.0848146e-16
350.60000,1.2855126e-15,1.0848146e-16
350.70000,1.2821412e-15,1.0848146e-16
350.80000,1.2743992e-15,1.0848146e-16
350.90000,1.2636763e-15,1.0848146e-16
351.00000,1.2505843e-15,1.0848146e-16
351.10000,1.2351012e-15,1.0848146e-16
351.20000,1.2171238e-15,1.0848146e-16
351.30000,1.1971715e-15,1.0848146e-16
351.40000,1.1768709e-15,1.0848146e-16
351.50000,1.1589053e-15,1.0848146e-16
351.60000,1.1463321e-15,1.0848146e-16
351.70000,1.1414672e-15,1.0848146e-16
351.80000,1.1447701e-15,1.0848146e-16
351.90000,1.1542183e-15,1.0848146e-16
352.00000,1.1654909e-15,1.0848146e-16
352.10000,1.1729682e-15,1.0848146e-16
352.20000,1.1712409e-15,1.0848146e-16
352.30000,1.1566446e-15,1.0848146e-16
352.40000,1.1283473e-15,1.0848146e-16
