wave,flux,fluxerr
90.028882,8.17633e-15,0.00000
90.031085,8.17681e-15,0.00000
90.046875,8.18020e-15,0.00000
90.064880,8.18373e-15,0.00000
90.098663,8.18932e-15,0.00000
90.125659,8.19240e-15,0.00000
90.166248,8.19303e-15,0.00000
90.188843,8.18986e-15,0.00000
90.191040,8.18934e-15,0.00000
90.206836,8.18425e-15,0.00000
90.224835,8.17436e-15,0.00000
90.230426,8.17003e-15,0.00000
90.244531,8.15540e-15,0.00000
90.258624,8.13292e-15,0.00000
90.268823,8.10889e-15,0.00000
90.272717,8.09718e-15,0.00000
90.277814,8.07904e-15,0.00000
90.286816,8.03627e-15,0.00000
90.291315,8.00751e-15,0.00000
90.295813,7.97153e-15,0.00000
90.300311,7.92541e-15,0.00000
90.304810,7.86446e-15,0.00000
90.309308,7.78041e-15,0.00000
90.311609,7.72535e-15,0.00000
90.313812,7.65766e-15,0.00000
90.316003,7.57267e-15,0.00000
90.318304,7.46318e-15,0.00000
90.318805,7.43446e-15,0.00000
90.320502,7.31758e-15,0.00000
90.322803,7.11573e-15,0.00000
90.326807,6.48600e-15,0.00000
90.330804,4.96622e-15,0.00000
90.331702,4.34528e-15,0.00000
90.334802,9.69370e-16,0.00000
90.337207,1.83308e-17,0.00000
90.337903,1.75205e-17,0.00000
90.338599,1.83341e-17,0.00000
90.339996,1.29618e-16,0.00000
90.342798,3.04476e-15,0.00000
90.344397,4.35390e-15,0.00000
90.345599,4.98971e-15,0.00000
90.346796,5.41905e-15,0.00000
90.349200,5.88363e-15,0.00000
90.351599,6.03236e-15,0.00000
90.353998,5.97821e-15,0.00000
90.355200,5.88698e-15,0.00000
90.356000,5.80237e-15,0.00000
90.356396,5.75262e-15,0.00000
90.356799,5.69770e-15,0.00000
90.358398,5.42155e-15,0.00000
90.361591,4.51833e-15,0.00000
90.362793,4.01406e-15,0.00000
90.364795,2.89372e-15,0.00000
90.366791,1.43729e-15,0.00000
90.368793,2.02116e-16,0.00000
90.369794,3.01061e-17,0.00000
90.370795,1.77529e-17,0.00000
90.371790,1.66595e-17,0.00000
90.373792,2.99531e-17,0.00000
90.377789,1.47479e-15,0.00000
90.381793,1.33307e-15,0.00000
90.385785,1.27435e-16,0.00000
90.388788,1.65911e-17,0.00000
90.389789,1.59915e-17,0.00000
90.390784,1.65953e-17,0.00000
90.392786,4.20718e-17,0.00000
90.394788,3.53274e-16,0.00000
90.396783,1.18517e-15,0.00000
90.398785,2.22784e-15,0.00000
90.400787,3.19540e-15,0.00000
90.402783,3.98421e-15,0.00000
90.404785,4.58623e-15,0.00000
90.406781,5.02087e-15,0.00000
90.408777,5.30199e-15,0.00000
90.410779,5.42890e-15,0.00000
90.411981,5.42166e-15,0.00000
90.412781,5.37510e-15,0.00000
90.413580,5.28852e-15,0.00000
90.415179,4.95939e-15,0.00000
90.418378,3.22594e-15,0.00000
90.419580,1.99771e-15,0.00000
90.421582,9.79889e-17,0.00000
90.423578,1.77328e-17,0.00000
90.426581,8.59055e-16,0.00000
90.427582,2.07759e-15,0.00000
90.428583,3.21856e-15,0.00000
90.430573,4.84508e-15,0.00000
90.431573,5.38748e-15,0.00000
90.432574,5.80543e-15,0.00000
90.433575,6.13257e-15,0.00000
90.435571,6.60433e-15,0.00000
90.439575,7.14949e-15,0.00000
90.442572,7.38418e-15,0.00000
90.443573,7.44413e-15,0.00000
90.444574,7.49747e-15,0.00000
90.446576,7.58823e-15,0.00000
90.447571,7.62714e-15,0.00000
90.448572,7.66252e-15,0.00000
90.450574,7.72443e-15,0.00000
90.451373,7.74639e-15,0.00000
90.453571,7.80010e-15,0.00000
90.456567,7.86064e-15,0.00000
90.461768,7.94130e-15,0.00000
90.466968,8.00135e-15,0.00000
90.470770,8.03639e-15,0.00000
90.472168,8.04785e-15,0.00000
90.472968,8.05408e-15,0.00000
90.473566,8.05862e-15,0.00000
90.476361,8.07838e-15,0.00000
90.479761,8.09961e-15,0.00000
90.486560,8.13491e-15,0.00000
90.486761,8.13583e-15,0.00000
90.500153,8.18612e-15,0.00000
90.513556,8.22113e-15,0.00000
90.538947,8.26531e-15,0.00000
90.540350,8.26720e-15,0.00000
90.540552,8.26747e-15,0.00000
90.541748,8.26906e-15,0.00000
90.544543,8.27265e-15,0.00000
90.550140,8.27941e-15,0.00000
90.559741,8.28982e-15,0.00000
90.564343,8.29436e-15,0.00000
90.578937,8.30730e-15,0.00000
90.593530,8.31844e-15,0.00000
90.622723,8.33712e-15,0.00000
90.660510,8.35686e-15,0.00000
90.681110,8.36631e-15,0.00000
90.683704,8.36746e-15,0.00000
90.685907,8.36842e-15,0.00000
90.701703,8.37515e-15,0.00000
90.719702,8.38247e-15,0.00000
90.753491,8.39551e-15,0.00000
90.821069,8.41972e-15,0.00000
90.890851,8.44321e-15,0.00000
90.956232,8.46445e-15,0.00000
91.003619,8.47953e-15,0.00000
91.021613,8.48523e-15,0.00000
91.024817,8.48623e-15,0.00000
91.035413,8.48958e-15,0.00000
91.039612,8.49090e-15,0.00000
91.054407,8.49554e-15,0.00000
91.073401,8.50148e-15,0.00000
91.111389,8.51333e-15,0.00000
91.120392,8.51613e-15,0.00000
91.187372,8.53685e-15,0.00000
91.241058,8.55336e-15,0.00000
91.254352,8.55745e-15,0.00000
91.388318,8.60928e-15,0.00000
91.448596,8.63231e-15,0.00000
91.656244,8.71045e-15,0.00000
91.760022,8.74891e-15,0.00000
91.863788,8.78692e-15,0.00000
91.915778,8.80571e-15,0.00000
91.967657,8.82415e-15,0.00000
91.993555,8.83302e-15,0.00000
92.019543,8.84102e-15,0.00000
92.032544,8.84389e-15,0.00000
92.045441,8.84384e-15,0.00000
92.051941,8.84031e-15,0.00000
92.058435,8.82865e-15,0.00000
92.061737,8.81437e-15,0.00000
92.064935,8.78664e-15,0.00000
92.068237,8.74094e-15,0.00000
92.071436,8.69995e-15,0.00000
92.074634,8.74320e-15,0.00000
92.077936,8.79121e-15,0.00000
92.081128,8.82125e-15,0.00000
92.084430,8.83782e-15,0.00000
92.090930,8.85404e-15,0.00000
92.097430,8.86214e-15,0.00000
92.099329,8.86389e-15,0.00000
92.103821,8.86736e-15,0.00000
92.116821,8.87460e-15,0.00000
92.142816,8.88523e-15,0.00000
92.147009,8.88677e-15,0.00000
92.170801,8.89502e-15,0.00000
92.194696,8.90242e-15,0.00000
92.218494,8.90832e-15,0.00000
92.230493,8.90999e-15,0.00000
92.242383,8.90970e-15,0.00000
92.254285,8.90478e-15,0.00000
92.260278,8.89839e-15,0.00000
92.266180,8.88615e-15,0.00000
92.272180,8.86111e-15,0.00000
92.275177,8.83842e-15,0.00000
92.278180,8.80159e-15,0.00000
92.281177,8.73766e-15,0.00000
92.284076,8.62478e-15,0.00000
92.287073,8.49436e-15,0.00000
92.290076,8.41125e-15,0.00000
92.293073,8.49617e-15,0.00000
92.296075,8.62872e-15,0.00000
92.298975,8.74381e-15,0.00000
92.301971,8.80985e-15,0.00000
92.304968,8.84873e-15,0.00000
92.307965,8.87346e-15,0.00000
92.313965,8.90254e-15,0.00000
92.319867,8.91885e-15,0.00000
92.331763,8.93671e-15,0.00000
92.343762,8.94691e-15,0.00000
92.355658,8.95415e-15,0.00000
92.379449,8.96505e-15,0.00000
92.402240,8.97349e-15,0.00000
92.406342,8.97489e-15,0.00000
92.427136,8.98153e-15,0.00000
92.452130,8.98833e-15,0.00000
92.475024,8.99785e-15,0.00000
92.497919,9.00485e-15,0.00000
92.520813,9.01030e-15,0.00000
92.532306,9.00905e-15,0.00000
92.543707,9.00248e-15,0.00000
92.555200,8.98492e-15,0.00000
92.560901,8.96824e-15,0.00000
92.566602,8.94180e-15,0.00000
92.572302,8.89825e-15,0.00000
92.575201,8.86598e-15,0.00000
92.578094,8.82291e-15,0.00000
92.580896,8.76421e-15,0.00000
92.583795,8.68422e-15,0.00000
92.586597,8.56648e-15,0.00000
92.589496,8.38399e-15,0.00000
92.592395,8.09357e-15,0.00000
92.592896,8.03702e-15,0.00000
92.595197,7.79756e-15,0.00000
92.597595,7.65086e-15,0.00000
92.599988,7.79996e-15,0.00000
92.602289,8.04175e-15,0.00000
92.604687,8.31208e-15,0.00000
92.607086,8.49277e-15,0.00000
92.609485,8.62357e-15,0.00000
92.611786,8.71422e-15,0.00000
92.614191,8.78267e-15,0.00000
92.616589,8.83606e-15,0.00000
92.618988,8.87809e-15,0.00000
92.621283,8.91167e-15,0.00000
92.626080,8.96135e-15,0.00000
92.630780,8.99599e-15,0.00000
92.635583,9.02129e-15,0.00000
92.645074,9.05607e-15,0.00000
92.654578,9.07921e-15,0.00000
92.664075,9.09638e-15,0.00000
92.683069,9.12199e-15,0.00000
92.721057,9.15822e-15,0.00000
92.759045,9.18657e-15,0.00000
92.797040,9.21082e-15,0.00000
92.835028,9.23130e-15,0.00000
92.873016,9.24680e-15,0.00000
92.911011,9.25344e-15,0.00000
92.930005,9.25116e-15,0.00000
92.948999,9.24196e-15,0.00000
92.967993,9.22089e-15,0.00000
92.977490,9.20301e-15,0.00000
92.986981,9.17629e-15,0.00000
92.996484,9.13647e-15,0.00000
93.005975,9.07290e-15,0.00000
93.010675,9.02663e-15,0.00000
93.015479,8.96514e-15,0.00000
93.020178,8.88044e-15,0.00000
93.022577,8.82513e-15,0.00000
93.024976,8.75933e-15,0.00000
93.027380,8.67544e-15,0.00000
93.029669,8.57367e-15,0.00000
93.032074,8.44530e-15,0.00000
93.034473,8.28302e-15,0.00000
93.036871,8.07096e-15,0.00000
93.039172,7.77612e-15,0.00000
93.041571,7.39602e-15,0.00000
93.043970,6.84662e-15,0.00000
93.046375,6.29875e-15,0.00000
93.047772,5.99373e-15,0.00000
93.048669,5.87531e-15,0.00000
93.049670,5.80809e-15,0.00000
93.051569,5.99403e-15,0.00000
93.055365,6.84795e-15,0.00000
93.059167,7.63716e-15,0.00000
93.062964,8.12170e-15,0.00000
93.066766,8.42169e-15,0.00000
93.070563,8.62591e-15,0.00000
93.074359,8.76684e-15,0.00000
93.078162,8.87196e-15,0.00000
93.081958,8.95190e-15,0.00000
93.085760,9.01359e-15,0.00000
93.089557,9.06349e-15,0.00000
93.097156,9.13951e-15,0.00000
93.104755,9.19365e-15,0.00000
93.112354,9.23516e-15,0.00000
93.127545,9.29581e-15,0.00000
93.142743,9.33792e-15,0.00000
93.173132,9.39787e-15,0.00000
93.198126,9.43286e-15,0.00000
93.203528,9.43961e-15,0.00000
93.208923,9.44598e-15,0.00000
93.215820,9.45411e-15,0.00000
93.219720,9.45851e-15,0.00000
93.223621,9.46283e-15,0.00000
93.231415,9.47110e-15,0.00000
93.244916,9.48443e-15,0.00000
93.246320,9.48576e-15,0.00000
93.247015,9.48642e-15,0.00000
93.247717,9.48708e-15,0.00000
93.250519,9.48977e-15,0.00000
93.256110,9.49503e-15,0.00000
93.265411,9.50342e-15,0.00000
93.267310,9.50509e-15,0.00000
93.287506,9.52196e-15,0.00000
93.309601,9.53898e-15,0.00000
93.353784,9.56832e-15,0.00000
93.442163,9.61483e-15,0.00000
93.486353,9.62932e-15,0.00000
93.530536,9.63466e-15,0.00000
93.574725,9.62247e-15,0.00000
93.596820,9.60636e-15,0.00000
93.618915,9.57775e-15,0.00000
93.641010,9.53120e-15,0.00000
93.652106,9.49766e-15,0.00000
93.663098,9.45202e-15,0.00000
93.674200,9.39463e-15,0.00000
93.685193,9.31701e-15,0.00000
93.690692,9.26616e-15,0.00000
93.696295,9.20341e-15,0.00000
93.701794,9.13155e-15,0.00000
93.707288,9.04114e-15,0.00000
93.712787,8.92337e-15,0.00000
93.715588,8.85252e-15,0.00000
93.718390,8.76884e-15,0.00000
93.721088,8.67494e-15,0.00000
93.723889,8.56136e-15,0.00000
93.726587,8.42479e-15,0.00000
93.729382,8.25928e-15,0.00000
93.732184,8.05544e-15,0.00000
93.734882,7.79597e-15,0.00000
93.737683,7.46391e-15,0.00000
93.740381,7.03224e-15,0.00000
93.743182,6.45532e-15,0.00000
93.745984,5.68522e-15,0.00000
93.747980,4.96269e-15,0.00000
93.748682,4.64927e-15,0.00000
93.751477,3.61926e-15,0.00000
93.754974,2.86357e-15,0.00000
93.758478,3.60907e-15,0.00000
93.761975,4.93926e-15,0.00000
93.765479,6.08294e-15,0.00000
93.768976,6.87566e-15,0.00000
93.772479,7.42696e-15,0.00000
93.775970,7.82490e-15,0.00000
93.779468,8.11300e-15,0.00000
93.782971,8.33660e-15,0.00000
93.786469,8.51616e-15,0.00000
93.789972,8.65098e-15,0.00000
93.793469,8.76943e-15,0.00000
93.796967,8.86940e-15,0.00000
93.800464,8.95787e-15,0.00000
93.803967,9.03305e-15,0.00000
93.807465,9.09804e-15,0.00000
93.814465,9.20575e-15,0.00000
93.821460,9.29769e-15,0.00000
93.822156,9.30566e-15,0.00000
93.828461,9.37233e-15,0.00000
93.835455,9.43346e-15,0.00000
93.848755,9.52849e-15,0.00000
93.860651,9.59722e-15,0.00000
93.862054,9.60410e-15,0.00000
93.863452,9.61101e-15,0.00000
93.866248,9.62424e-15,0.00000
93.871844,9.64847e-15,0.00000
93.878546,9.67417e-15,0.00000
93.883044,9.69118e-15,0.00000
93.887543,9.70748e-15,0.00000
93.896539,9.73646e-15,0.00000
93.901740,9.75155e-15,0.00000
93.905243,9.76148e-15,0.00000
93.914532,9.78544e-15,0.00000
93.927332,9.81408e-15,0.00000
93.949426,9.85606e-15,0.00000
93.993616,9.92224e-15,0.00000
93.995312,9.92437e-15,0.00000
94.037805,9.97107e-15,0.00000
94.081989,1.00109e-14,0.00000
94.153973,1.00641e-14,0.00000
94.159265,1.00677e-14,0.00000
94.167670,1.00733e-14,0.00000
94.168665,1.00739e-14,0.00000
94.183362,1.00832e-14,0.00000
94.207452,1.00979e-14,0.00000
94.225153,1.01083e-14,0.00000
94.247247,1.01209e-14,0.00000
94.269342,1.01330e-14,0.00000
94.298431,1.01481e-14,0.00000
94.313531,1.01557e-14,0.00000
94.313928,1.01560e-14,0.00000
94.319226,1.01586e-14,0.00000
94.326227,1.01620e-14,0.00000
94.328625,1.01632e-14,0.00000
94.343317,1.01702e-14,0.00000
94.367413,1.01812e-14,0.00000
94.393903,1.01923e-14,0.00000
94.408600,1.01979e-14,0.00000
94.417297,1.02010e-14,0.00000
94.423297,1.02030e-14,0.00000
94.429291,1.02048e-14,0.00000
94.433990,1.02061e-14,0.00000
94.441296,1.02077e-14,0.00000
94.448596,1.02089e-14,0.00000
94.462286,1.02083e-14,0.00000
94.463190,1.02080e-14,0.00000
94.463989,1.02077e-14,0.00000
94.464288,1.02077e-14,0.00000
94.466290,1.02068e-14,0.00000
94.468585,1.02054e-14,0.00000
94.473187,1.02009e-14,0.00000
94.477783,1.01919e-14,0.00000
94.480084,1.01840e-14,0.00000
94.482379,1.01713e-14,0.00000
94.484680,1.01488e-14,0.00000
94.486981,1.01006e-14,0.00000
94.489282,9.95246e-15,0.00000
94.489581,9.91023e-15,0.00000
94.491583,8.70574e-15,0.00000
94.493579,5.47143e-15,0.00000
94.497577,9.84097e-15,0.00000
94.501575,9.88521e-15,0.00000
94.502875,9.75001e-15,0.00000
94.505573,8.18970e-15,0.00000
94.508276,1.87727e-15,0.00000
94.510974,8.19026e-15,0.00000
94.513678,9.75550e-15,0.00000
94.516376,9.97372e-15,0.00000
94.519073,1.00216e-14,0.00000
94.521771,9.99623e-15,0.00000
94.524469,9.87712e-15,0.00000
94.527167,9.46922e-15,0.00000
94.527368,9.40824e-15,0.00000
94.529871,6.65118e-15,0.00000
94.532367,7.52663e-16,0.00000
94.534869,6.65720e-15,0.00000
94.537372,9.42759e-15,0.00000
94.539868,9.87898e-15,0.00000
94.542365,1.00351e-14,0.00000
94.544861,1.01079e-14,0.00000
94.547363,1.01479e-14,0.00000
94.549866,1.01725e-14,0.00000
94.554865,1.02001e-14,0.00000
94.559863,1.02147e-14,0.00000
94.567560,1.02265e-14,0.00000
94.569855,1.02279e-14,0.00000
94.572156,1.02280e-14,0.00000
94.576758,1.02340e-14,0.00000
94.577655,1.02346e-14,0.00000
94.584259,1.02378e-14,0.00000
94.585956,1.02383e-14,0.00000
94.594250,1.02344e-14,0.00000
94.599249,1.02411e-14,0.00000
94.604248,1.02421e-14,0.00000
94.609253,1.02425e-14,0.00000
94.614246,1.02425e-14,0.00000
94.624243,1.02418e-14,0.00000
94.624945,1.02417e-14,0.00000
94.644238,1.02379e-14,0.00000
94.648840,1.02367e-14,0.00000
94.663531,1.02311e-14,0.00000
94.672235,1.02266e-14,0.00000
94.678229,1.02229e-14,0.00000
94.684229,1.02195e-14,0.00000
94.690125,1.02159e-14,0.00000
94.696228,1.02117e-14,0.00000
94.702319,1.02069e-14,0.00000
94.714520,1.01954e-14,0.00000
94.735712,1.01692e-14,0.00000
94.738916,1.01642e-14,0.00000
94.742114,1.01590e-14,0.00000
94.748511,1.01476e-14,0.00000
94.758411,1.01285e-14,0.00000
94.761310,1.01223e-14,0.00000
94.764209,1.01158e-14,0.00000
94.770001,1.01016e-14,0.00000
94.781604,1.00692e-14,0.00000
94.786102,1.00558e-14,0.00000
94.804797,9.98538e-15,0.00000
94.808795,9.96688e-15,0.00000
94.823492,9.88312e-15,0.00000
94.838184,9.77954e-15,0.00000
94.843481,9.73357e-15,0.00000
94.852881,9.63886e-15,0.00000
94.862280,9.52037e-15,0.00000
94.871680,9.37174e-15,0.00000
94.876379,9.28815e-15,0.00000
94.881073,9.19018e-15,0.00000
94.885773,9.07915e-15,0.00000
94.890472,8.94614e-15,0.00000
94.895172,8.80095e-15,0.00000
94.897668,8.71152e-15,0.00000
94.899872,8.62715e-15,0.00000
94.902069,8.53767e-15,0.00000
94.904266,8.43790e-15,0.00000
94.906464,8.32733e-15,0.00000
94.908667,8.20715e-15,0.00000
94.910864,8.07141e-15,0.00000
94.913068,7.92448e-15,0.00000
94.915265,7.76585e-15,0.00000
94.917468,7.58446e-15,0.00000
94.919666,7.38053e-15,0.00000
94.921863,7.14249e-15,0.00000
94.923163,6.98956e-15,0.00000
94.924066,6.87438e-15,0.00000
94.925165,6.72192e-15,0.00000
94.927161,6.42420e-15,0.00000
94.929156,6.07513e-15,0.00000
94.931158,5.66021e-15,0.00000
94.933160,5.17779e-15,0.00000
94.935156,4.61665e-15,0.00000
94.937158,3.96037e-15,0.00000
94.939160,3.18012e-15,0.00000
94.941162,2.37316e-15,0.00000
94.943158,1.51155e-15,0.00000
94.945160,9.50005e-16,0.00000
94.945660,8.53412e-16,0.00000
94.947162,5.92448e-16,0.00000
94.948657,5.14841e-16,0.00000
94.951654,8.48819e-16,0.00000
94.954651,1.68709e-15,0.00000
94.957654,2.91531e-15,0.00000
94.960651,4.01870e-15,0.00000
94.963654,4.86956e-15,0.00000
94.966650,5.55009e-15,0.00000
94.969653,6.09529e-15,0.00000
94.972644,6.52529e-15,0.00000
94.975647,6.89010e-15,0.00000
94.978650,7.20436e-15,0.00000
94.981647,7.46922e-15,0.00000
94.984650,7.69329e-15,0.00000
94.987646,7.90465e-15,0.00000
94.990649,8.08349e-15,0.00000
94.993646,8.24727e-15,0.00000
94.996643,8.39141e-15,0.00000
94.999640,8.52102e-15,0.00000
95.002643,8.64063e-15,0.00000
95.005640,8.74632e-15,0.00000
95.011639,8.94573e-15,0.00000
95.017633,9.10984e-15,0.00000
95.023633,9.24771e-15,0.00000
95.029633,9.36754e-15,0.00000
95.035632,9.47737e-15,0.00000
95.041626,9.57141e-15,0.00000
95.047626,9.65642e-15,0.00000
95.059631,9.79479e-15,0.00000
95.071625,9.90512e-15,0.00000
95.083624,1.00009e-14,0.00000
95.095618,1.00787e-14,0.00000
95.107611,1.01427e-14,0.00000
95.119812,1.01968e-14,0.00000
95.128711,1.02334e-14,0.00000
95.131604,1.02443e-14,0.00000
95.134003,1.02531e-14,0.00000
95.142407,1.02816e-14,0.00000
95.143402,1.02848e-14,0.00000
95.158099,1.03294e-14,0.00000
95.182190,1.03887e-14,0.00000
95.199884,1.04245e-14,0.00000
95.221979,1.04624e-14,0.00000
95.244073,1.04967e-14,0.00000
95.288263,1.05510e-14,0.00000
95.376642,1.06279e-14,0.00000
95.465021,1.06845e-14,0.00000
95.641772,1.07722e-14,0.00000
95.694257,1.07954e-14,0.00000
95.800024,1.08405e-14,0.00000
95.818518,1.08483e-14,0.00000
95.942792,1.08995e-14,0.00000
96.191321,1.09925e-14,0.00000
96.262701,1.10181e-14,0.00000
96.422656,1.10730e-14,0.00000
96.582611,1.11207e-14,0.00000
96.662598,1.11384e-14,0.00000
96.742572,1.11489e-14,0.00000
96.822552,1.11455e-14,0.00000
96.862543,1.11346e-14,0.00000
96.902527,1.11141e-14,0.00000
96.942517,1.10769e-14,0.00000
96.982507,1.10140e-14,0.00000
97.002502,1.09664e-14,0.00000
97.022498,1.09035e-14,0.00000
97.042493,1.08178e-14,0.00000
97.062488,1.07014e-14,0.00000
97.072485,1.06316e-14,0.00000
97.082477,1.05478e-14,0.00000
97.092480,1.04480e-14,0.00000
97.102472,1.03252e-14,0.00000
97.112476,1.01808e-14,0.00000
97.122467,1.00040e-14,0.00000
97.127466,9.90695e-15,0.00000
97.132465,9.79675e-15,0.00000
97.137469,9.67158e-15,0.00000
97.141461,9.55934e-15,0.00000
97.142462,9.52924e-15,0.00000
97.143463,9.49826e-15,0.00000
97.145459,9.43353e-15,0.00000
97.149463,9.29537e-15,0.00000
97.153461,9.15296e-15,0.00000
97.157458,8.99171e-15,0.00000
97.161462,8.81238e-15,0.00000
97.165454,8.61340e-15,0.00000
97.169452,8.38351e-15,0.00000
97.173456,8.12877e-15,0.00000
97.177454,7.82864e-15,0.00000
97.180457,7.60010e-15,0.00000
97.181458,7.51794e-15,0.00000
97.182452,7.43207e-15,0.00000
97.184454,7.24804e-15,0.00000
97.186450,7.04930e-15,0.00000
97.188446,6.83249e-15,0.00000
97.190448,6.59309e-15,0.00000
97.192450,6.34917e-15,0.00000
97.194446,6.08572e-15,0.00000
97.196448,5.79682e-15,0.00000
97.198450,5.49142e-15,0.00000
97.200452,5.15013e-15,0.00000
97.202448,4.77704e-15,0.00000
97.206451,3.93583e-15,0.00000
97.208447,3.46021e-15,0.00000
97.210443,2.93514e-15,0.00000
97.212445,2.38096e-15,0.00000
97.214441,1.80216e-15,0.00000
97.215442,1.50667e-15,0.00000
97.216443,1.21295e-15,0.00000
97.217444,9.38452e-16,0.00000
97.219440,4.83147e-16,0.00000
97.222443,1.04979e-16,0.00000
97.223444,7.96476e-17,0.00000
97.225446,5.07038e-17,0.00000
97.227441,4.68624e-17,0.00000
97.230444,6.17066e-17,0.00000
97.231439,7.75183e-17,0.00000
97.232434,9.93461e-17,0.00000
97.234436,2.67952e-16,0.00000
97.235437,4.18186e-16,0.00000
97.236438,5.88198e-16,0.00000
97.237439,7.93486e-16,0.00000
97.239435,1.27567e-15,0.00000
97.242438,2.02204e-15,0.00000
97.243439,2.26904e-15,0.00000
97.245435,2.75031e-15,0.00000
97.247437,3.20784e-15,0.00000
97.251434,4.02669e-15,0.00000
97.253436,4.41341e-15,0.00000
97.255432,4.77136e-15,0.00000
97.257428,5.10259e-15,0.00000
97.259430,5.40745e-15,0.00000
97.261432,5.69384e-15,0.00000
97.263428,5.95469e-15,0.00000
97.265430,6.21488e-15,0.00000
97.267432,6.46343e-15,0.00000
97.269427,6.69115e-15,0.00000
97.271429,6.90182e-15,0.00000
97.273431,7.09570e-15,0.00000
97.277423,7.44074e-15,0.00000
97.281427,7.77348e-15,0.00000
97.285425,8.06037e-15,0.00000
97.289423,8.32403e-15,0.00000
97.293427,8.55282e-15,0.00000
97.297424,8.75751e-15,0.00000
97.301416,8.94107e-15,0.00000
97.305420,9.10362e-15,0.00000
97.309418,9.26396e-15,0.00000
97.313416,9.41070e-15,0.00000
97.317419,9.54177e-15,0.00000
97.321417,9.66009e-15,0.00000
